{"redRecord": "/SNS/SNAP/IPTS-30264/shared/SNAPRed/04bd2c53f6bf6754/lite/59059/None/ReductionRecord.json"
"attenuationMethod": null
"backgroundMethod": null}
# Total flight path 15.5806m, tth 85.3035deg, DIFC 5218.45
# Data for spectrum :0
BANK 1 863 863 SLOG       4123      13024  0.0013345 0 FXYE
        4125.524418352      121204.827868769       14259.966636521            
        4131.030094763      116913.913777414       13718.176830202            
        4136.543118719      128318.432198836       13474.905472405            
        4142.063500025      131492.818493168       13380.862968648            
        4147.591248499      113292.583859102       13036.352936279            
        4153.126373973      104826.105932161       12807.790247229            
        4158.668886292      101574.880688562       12660.486727469            
        4164.218795314      134844.163524017       12938.983304781            
        4169.776110911      110367.058788681       12572.531124100            
        4175.340842966      112371.491926081       12501.085267227            
        4180.913001378      113851.964800171       12422.475919520            
        4186.492596056       95207.300232951       12118.168357533            
        4192.079636926      104474.328308821       12130.364980107            
        4197.674133923      118202.294389607       12200.328854385            
        4203.276097000      114194.424320490       12061.854005822            
        4208.885536119      111005.978420785       11955.873364673            
        4214.502461258      103849.369452524       11801.491032018            
        4220.126882406      110181.067022926       11809.920459263            
        4225.758809568      101526.696895612       11689.121206303            
        4231.398252762      120466.633362960       11838.185567245            
        4237.045222016      132005.284212947       11921.572208604            
        4242.699727375      116865.900287612       11712.633026440            
        4248.361778897      130084.042352831       11756.772292656            
        4254.031386652      117993.434476903       11531.454941021            
        4259.708560723      118056.526302678       11465.791808268            
        4265.393311209      116136.524525132       11373.395113306            
        4271.085648221      114971.063086297       11284.977845555            
        4276.785581883      117102.117755944       11249.901259109            
        4282.493122333      115728.356525322       11162.520406317            
        4288.208279723      111790.205188546       11042.982134624            
        4293.931064218      106350.496810364       10906.970800875            
        4299.661485996      110725.319217907       10880.482111012            
        4305.399555250      118152.691339113       10890.508821819            
        4311.145282186      109201.656977737       10757.424253226            
        4316.898677022       95132.479575220       10599.467964091            
        4322.659749993      125988.450059261       10805.174024123            
        4328.428511345      107108.844762164       10595.752144304            
        4334.204971339       98566.022916929       10469.232163330            
        4339.989140248      108487.572013629       10495.666483951            
        4345.781028360      108071.366160737       10416.086841339            
        4351.580645978      116084.551815009       10422.591872458            
        4357.388003415      123446.416089990       10407.722052587            
        4363.203111003      117485.563650883       10267.672206436            
        4369.025979082      122714.254159452       10242.307994931            
        4374.856618011      116254.710843737       10113.736841748            
        4380.695038159      121205.444749563       10093.346473763            
        4386.541249911      129480.547655147       10122.497958577            
        4392.395263665      109071.751782970        9896.461042264            
        4398.257089834      128539.521945209       10020.017716024            
        4404.126738842      116104.123211443        9864.993921289            
        4410.004221131      128601.888171642        9933.650620325            
        4415.889547153      125952.226090394        9844.026216344            
        4421.782727377      121440.139253894        9749.924482438            
        4427.683772285      109965.463493970        9614.608322011            
        4433.592692371      120686.028508464        9657.703180192            
        4439.509498147      125968.870608791        9650.635547448            
        4445.434200135      118652.162032875        9543.050836633            
        4451.366808873      122310.782637529        9526.683601923            
        4457.307334914      111632.572651923        9393.095053316            
        4463.255788823      119457.999109879        9404.575474874            
        4469.212181181      121075.324475918        9373.287060174            
        4475.176522580      116585.458966177        9279.709974104            
        4481.148823631      124725.297465651        9304.109513337            
        4487.129094955      115562.659190894        9152.158949237            
        4493.117347189      124354.539965754        9193.658025652            
        4499.113590984      117251.564659122        9093.731851041            
        4505.117837004      121030.254890579        9087.463149171            
        4511.130095930      121102.283625014        9038.103612269            
        4517.150378454      122242.970377064        9031.768765771            
        4523.178695284      123918.435437886        8981.251420057            
        4529.215057144      135291.053125502        9012.314282361            
        4535.259474768      126743.053444372        8910.819001806            
        4541.311958908      131466.128139905        8911.532896179            
        4547.372520328      128467.138889003        8858.391687241            
        4553.441169809      121992.030617305        8795.280826783            
        4559.517918144      117441.626902730        8742.282035636            
        4565.602776142      124873.515825634        8790.107348879            
        4571.695754624      115775.741676386        8720.485899970            
        4577.796864429      118385.575515220        8735.462113695            
        4583.906116407      107969.385934930        8640.991800772            
        4590.023521425      107416.884567662        8624.114666241            
        4596.149090363      123454.560859733        8707.987358058            
        4602.282834116      121026.754384723        8643.678697266            
        4608.424763595      125061.366604656        8627.030752095            
        4614.574889723      113544.482328191        8511.949016082            
        4620.733223438      121011.959028050        8529.806185214            
        4626.899775695      112040.227755081        8429.339351190            
        4633.074557461      113886.272498126        8412.691807878            
        4639.257579719      108497.339158977        8348.241712907            
        4645.448853466      114821.895752528        8356.925082433            
        4651.648389714      122898.857658135        8405.269577252            
        4657.856199490      115120.478769662        8327.828829953            
        4664.072293835      115713.646004976        8316.436840199            
        4670.296683805      122422.373735081        8340.092942811            
        4676.529380471      118903.682218470        8299.311023494            
        4682.770394918      117669.409381075        8263.387621131            
        4689.019738248      124230.473916517        8295.007382828            
        4695.277421574      118722.683730985        8238.287524580            
        4701.543456028      138835.121408314        8359.454561499            
        4707.817852754      131781.361011501        8285.834980176            
        4714.100622912      121989.393305911        8200.616718484            
        4720.391777677      122567.589286774        8192.761867027            
        4726.691328238      134630.567310862        8258.220994051            
        4732.999285800      135180.484116387        8252.403742399            
        4739.315661582      134437.162070713        8253.827517004            
        4745.640466819      147855.619533040        8345.376864053            
        4751.973712759      147494.799683715        8338.152703585            
        4758.315410669      142140.931109946        8306.617154704            
        4764.665571826      144993.835435530        8319.522810385            
        4771.024207526      139147.640110789        8256.539737332            
        4777.391329079      143690.101837087        8259.557971832            
        4783.766947808      139827.398985995        8210.551830696            
        4790.151075054      137033.246791588        8166.026358805            
        4796.543722172      123047.797252512        8065.697228457            
        4802.944900531      131677.379403879        8122.588636251            
        4809.354621518      136375.785029802        8151.553760491            
        4815.772896532      127863.211010217        8092.293289104            
        4822.199736990      125758.576527366        8075.936625488            
        4828.635154321      127096.934192388        8074.142407597            
        4835.079159973      132184.739496562        8098.047888070            
        4841.531765407      123656.183093442        8040.568414408            
        4847.992982100      118371.625895934        8000.593361074            
        4854.462821543      122770.344697401        8023.325915448            
        4860.941295244      128727.542202441        8051.330028032            
        4867.428414726      124118.868090853        8010.123123366            
        4873.924191527      125760.323851249        8006.701376294            
        4880.428637200      125049.103384487        7993.419794602            
        4886.941763315      125999.558133127        7988.099945946            
        4893.463581455      137993.387786429        8057.942369887            
        4899.994103222      128937.496945920        7998.490881698            
        4906.533340229      129194.900866507        7998.747962981            
        4913.081304108      116658.414307785        7917.705387278            
        4919.638006506      124424.516951124        7980.193528373            
        4926.203459083      132573.603850228        8044.369818890            
        4932.777673518      136201.608518662        8079.582225349            
        4939.360661504      128236.028447350        8047.110732987            
        4945.952434749      129153.834220997        8064.502261652            
        4952.553004978      135890.909668723        8127.988835431            
        4959.162383930      136008.443889691        8137.800838248            
        4965.780583361      130898.620357352        8114.180652661            
        4972.407615042      133200.839578920        8144.796078740            
        4979.043490761      134237.297867628        8159.085346282            
        4985.688222320      147042.117793088        8240.345442285            
        4992.341821538      126507.232641758        8112.714772265            
        4999.004300248      133143.019797927        8168.251876771            
        5005.675670301      124070.014922565        8114.111747516            
        5012.355943562      135128.740466058        8199.093380813            
        5019.045131914      130424.605789014        8179.174017202            
        5025.743247254      139884.625452399        8258.793084795            
        5032.450301496      136801.856873691        8251.533188123            
        5039.166306567      133660.079978340        8247.003102642            
        5045.891274415      126521.355919212        8217.205119607            
        5052.625217000      130832.035146447        8267.781073600            
        5059.368146299      133299.136738195        8312.658931867            
        5066.120074305      131643.254514587        8340.114289874            
        5072.881013028      140140.303235273        8421.387200636            
        5079.650974492      129678.661267344        8383.476726362            
        5086.429970739      132201.304263266        8424.005916313            
        5093.218013827      136125.606748153        8464.897678284            
        5100.015115827      136181.064401877        8468.928708253            
        5106.821288831      132538.839179116        8463.239622850            
        5113.636544943      127019.506127733        8437.776730111            
        5120.460896286      143309.734035752        8580.297173686            
        5127.294354997      130830.337825296        8534.380239687            
        5134.136933230      137893.649348680        8602.953897702            
        5140.988643156      140783.861209672        8641.898551660            
        5147.849496961      124139.673313427        8557.323521457            
        5154.719506849      134013.561317195        8623.741940381            
        5161.598685038      140953.977299028        8681.483362813            
        5168.487043764      129449.571703461        8620.561661993            
        5175.384595279      135087.050837662        8661.030626648            
        5182.291351850      146747.566525875        8744.761527647            
        5189.207325763      135426.295484781        8674.512715389            
        5196.132529318      131879.962345300        8658.769920632            
        5203.066974833      134443.595285082        8690.778246064            
        5210.010674641      147877.417008519        8807.552738125            
        5216.963641092      149953.637981214        8837.364995646            
        5223.925886554      144356.410882443        8831.214648941            
        5230.897423409      135601.658740032        8785.357261551            
        5237.878264058      151998.740728657        8915.421096488            
        5244.868420916      143075.771305777        8889.656720170            
        5251.867906416      145973.003180762        8948.306149842            
        5258.876733008      127494.546334007        8849.769562646            
        5265.894913158      144744.521833777        8996.050282164            
        5272.922459348      134205.215291320        8954.771013693            
        5279.959384078      123158.265096456        8898.855573468            
        5287.005699865      129317.955652041        8952.329724961            
        5294.061419239      143921.409471366        9068.319372214            
        5301.126554752      127385.148998353        8968.886674043            
        5308.201118970      129564.503111769        8990.220687552            
        5315.285124474      153119.922857768        9144.236816500            
        5322.378583866      141166.735998148        9069.659639007            
        5329.481509761      145432.393283598        9089.146552743            
        5336.593914794      152858.064122474        9129.027293557            
        5343.715811614      147398.426141720        9088.800972536            
        5350.847212888      142086.165641772        9051.714828459            
        5357.988131301      152882.388822627        9120.875171273            
        5365.138579553      154139.985581767        9125.376194625            
        5372.298570364      135581.550435359        8994.166352698            
        5379.468116466      133093.346980205        8975.139462638            
        5386.647230613      143070.622378776        9044.457764424            
        5393.835925574      156197.836792863        9122.520981496            
        5401.034214134      145669.381613139        9062.095573225            
        5408.242109096      138566.692769004        9020.274866701            
        5415.459623280      138526.233266863        9012.605358607            
        5422.686769525      146096.795947983        9064.647583120            
        5429.923560683      150627.898425752        9101.906817508            
        5437.170009627      147672.530577133        9084.855543406            
        5444.426129246      135332.418594200        9017.092317910            
        5451.691932444      143196.671488510        9094.127528055            
        5458.967432146      160609.629325535        9240.141379114            
        5466.252641292      153452.376510787        9211.509636064            
        5473.547572839      154936.798871980        9246.444833306            
        5480.852239762      155459.175887609        9264.921349188            
        5488.166655054      142825.595270392        9201.468150654            
        5495.490831723      142866.950174518        9224.514586909            
        5502.824782798      142352.675040981        9243.114299974            
        5510.168521323      154670.351723347        9350.693985300            
        5517.522060358      151080.468648872        9349.520694084            
        5524.885412984      149498.763923120        9368.934263535            
        5532.258592296      151392.467833432        9421.166360444            
        5539.641611410      130686.248558327        9320.659216118            
        5547.034483456      152161.604615671        9506.941155810            
        5554.437221585      154282.040362290        9562.342121632            
        5561.849838961      162879.198271981        9660.538044656            
        5569.272348770      151182.797586225        9603.600903962            
        5576.704764214      151111.761349785        9628.525371092            
        5584.147098512      154260.653615801        9703.717772135            
        5591.599364901      139610.458012350        9652.335967152            
        5599.061576635      149800.341318275        9777.314482412            
        5606.533746988      146933.933617033        9796.863636379            
        5614.015889250      143776.218012089        9848.964355491            
        5621.508016728      122480.208822733        9760.143741888            
        5629.010142748      154464.121793079       10023.193273253            
        5636.522280654      149656.843269789       10038.353156683            
        5644.044443806      150289.245743163       10094.195595634            
        5651.576645585      148975.794965269       10116.393846118            
        5659.118899386      146448.329717619       10105.368259034            
        5666.671218625      158597.819968069       10211.048159362            
        5674.233616734      154351.152267178       10198.336824196            
        5681.806107164      167418.000350643       10310.171369068            
        5689.388703384      156001.557172939       10230.166200072            
        5696.981418880      146402.763056467       10176.566726617            
        5704.584267157      151580.752617554       10234.503882002            
        5712.197261737      151107.334142199       10231.143463364            
        5719.820416162      145388.088927705       10179.208179647            
        5727.453743989      150433.420657708       10191.666677731            
        5735.097258795      137268.163289887       10077.640826389            
        5742.750974177      141914.480933793       10089.771882006            
        5750.414903745      153608.146574417       10157.640696573            
        5758.089061133      149536.183440407       10112.019068582            
        5765.773459989      150920.779324159       10116.142989129            
        5773.468113980      160606.256295911       10174.897768571            
        5781.173036794      156497.716239900       10126.989178917            
        5788.888242133      150248.682744114       10049.314401782            
        5796.613743721      146653.710702751        9986.420147010            
        5804.349555298      152174.275752701        9986.829382220            
        5812.095690623      153823.174337488        9944.310386440            
        5819.852163474      159121.656376104        9941.218118493            
        5827.618987646      152904.819697481        9863.622649648            
        5835.396176954      152991.792702489        9831.246069952            
        5843.183745230      144129.824167452        9725.289358825            
        5850.981706326      153258.526941112        9751.398164208            
        5858.790074112      152058.998823424        9709.107676935            
        5866.608862474      161592.185563661        9719.695059339            
        5874.438085321      166951.829878825        9711.403732324            
        5882.277756577      168125.336524807        9676.765072106            
        5890.127890186      161827.760857349        9578.718904748            
        5897.988500110      163802.010174617        9529.808425576            
        5905.859600331      148563.203467100        9375.784976104            
        5913.741204848      156512.907873308        9388.436091303            
        5921.633327680      164231.574107240        9386.075901039            
        5929.535982864      169115.444942916        9374.056011521            
        5937.449184456      154551.315422936        9239.904740868            
        5945.372946529      149199.048304278        9166.516924173            
        5953.307283178      158138.646049865        9177.685204859            
        5961.252208516      167417.944181186        9198.735518361            
        5969.207736672      160285.290310889        9102.340851218            
        5977.173881796      169109.540675676        9097.158161731            
        5985.150658058      155612.976553225        8952.612368296            
        5993.138079646      171200.365672301        8988.466752799            
        6001.136160765      171771.057949579        8933.845897989            
        6009.144915641      159081.844635066        8817.053011631            
        6017.164358519      156493.383474507        8752.804102452            
        6025.194503663      167604.558216563        8774.264888863            
        6033.235365355      165503.399964686        8704.011237659            
        6041.286957897      161060.664683553        8627.651249804            
        6049.349295609      165069.959596472        8586.883493067            
        6057.422392831      169860.159306779        8561.046520845            
        6065.506263923      159439.505664122        8449.809733895            
        6073.600923262      162422.044506611        8415.051613149            
        6081.706385246      175260.988866482        8430.149086111            
        6089.822664291      179851.578181656        8397.291123150            
        6097.949774834      181709.771318353        8357.828710000            
        6106.087731328      190700.571286389        8356.188686330            
        6114.236548250      199472.654899056        8362.364437391            
        6122.396240091      204410.702674987        8354.964911282            
        6130.566821366      213376.070643838        8365.226183895            
        6138.748306607      228938.532814725        8419.729728374            
        6146.940710365      227268.727820051        8373.644185126            
        6155.144047212      232976.430994607        8377.170418946            
        6163.358331737      239728.497338414        8387.248078958            
        6171.583578553      232937.866586523        8337.137809493            
        6179.819802287      235581.391919577        8331.459482711            
        6188.067017589      210831.651325532        8167.294339339            
        6196.325239129      210228.897777709        8146.161498961            
        6204.594481593      189716.458660124        8002.789186002            
        6212.874759690      186284.490573405        7963.220441168            
        6221.166088148      184607.984655121        7928.658616903            
        6229.468481713      171677.036576550        7836.990053726            
        6237.781955153      170162.849965175        7804.503055645            
        6246.106523254      170103.772656865        7778.611617258            
        6254.442200821      175053.060812854        7774.631875809            
        6262.789002682      170951.093773907        7721.163616175            
        6271.146943683      166986.271499239        7676.763746974            
        6279.516038687      161761.368732870        7619.668359582            
        6287.896302582      171525.273815009        7658.591598389            
        6296.287750273      167226.315425390        7612.941805223            
        6304.690396684      177240.190629917        7650.060433079            
        6313.104256761      166827.042575808        7568.078371183            
        6321.529345468      166129.767701274        7534.206849861            
        6329.965677792      164093.292419376        7491.563347686            
        6338.413268737      172431.749643824        7511.217119268            
        6346.872133327      166921.176287884        7458.067072088            
        6355.342286609      168838.331786768        7444.746092729            
        6363.823743648      175950.688298689        7472.936009754            
        6372.316519528      165462.175606410        7412.394060883            
        6380.820629355      160115.056031911        7387.051428005            
        6389.336088256      167751.667235016        7429.384572476            
        6397.862911374      174264.757007626        7469.302620493            
        6406.401113877      176541.296583547        7477.663186870            
        6414.950710952      170721.676466191        7443.792774931            
        6423.511717803      169723.642786099        7431.973115072            
        6432.084149658      175588.021136977        7461.342937288            
        6440.668021765      170846.318501618        7441.718137416            
        6449.263349391      175218.953753929        7475.170658032            
        6457.870147823      173538.959379043        7479.735929098            
        6466.488432369      167635.765326669        7462.573038372            
        6475.118218360      175229.075812161        7523.643978543            
        6483.759521143      173473.601583128        7533.793113468            
        6492.412356088      173938.868079788        7550.364295223            
        6501.076738585      178646.963900395        7584.128263814            
        6509.752684046      182174.962574474        7612.339612195            
        6518.440207901      169894.341676397        7553.168442723            
        6527.139325602      187577.564470469        7654.862267326            
        6535.850052621      191247.454558406        7684.732543914            
        6544.572404452      180458.426746166        7642.744416031            
        6553.306396609      173461.076700690        7624.277152921            
        6562.052044625      174226.196443355        7653.994833936            
        6570.809364057      188543.393849738        7743.492893815            
        6579.578370479      182067.087169201        7728.059580796            
        6588.359079490      171332.785691565        7687.691641799            
        6597.151506705      178916.395031562        7744.161189228            
        6605.955667765      175056.946682367        7736.101397312            
        6614.771578328      169452.867260337        7727.948686914            
        6623.599254074      168245.075693176        7748.409513732            
        6632.438710704      166886.765512281        7759.655783556            
        6641.289963941      171585.589002357        7813.934040031            
        6650.153029527      180830.919049818        7884.141659380            
        6659.027923226      186587.385205666        7934.848983923            
        6667.914660825      180686.366058996        7911.977249285            
        6676.813258128      183274.969972212        7937.894782299            
        6685.723730963      164300.584960012        7848.014804231            
        6694.646095178      160262.684054488        7844.137616701            
        6703.580366644      180446.181207011        7989.708641948            
        6712.526561250      178490.292464001        7999.540850830            
        6721.484694908      180755.470009930        8032.524221799            
        6730.454783552      178730.796213799        8033.733525587            
        6739.436843136      175576.064440546        8034.625885663            
        6748.430889636      186260.219106180        8116.810197074            
        6757.436939049      184626.334350533        8129.151475339            
        6766.455007392      173931.338229343        8098.926479834            
        6775.485110707      180647.197176827        8164.849787904            
        6784.527265054      172193.839214899        8143.488711108            
        6793.581486515      177554.404341396        8205.300602500            
        6802.647791195      178388.728288859        8239.587257059            
        6811.726195219      179447.427200851        8275.877337407            
        6820.816714734      173199.650563810        8263.133360700            
        6829.919365909      175284.224356223        8294.773235755            
        6839.034164934      177325.812590317        8333.472257658            
        6848.161128021      173606.462935895        8329.683740169            
        6857.300271403      183947.619029471        8399.032098178            
        6866.451611335      174000.726325963        8342.476947972            
        6875.615164095      166667.154822245        8297.656331465            
        6884.790945980      179481.386427376        8371.685543272            
        6893.978973311      186472.484214944        8422.440595383            
        6903.179262430      182516.994782127        8409.200730723            
        6912.391829700      188110.471776319        8448.525503267            
        6921.616691508      176689.210722665        8404.580831685            
        6930.853864261      172129.160878992        8400.676184798            
        6940.103364388      196972.220539702        8573.841424707            
        6949.365208342      180003.063906506        8477.851786312            
        6958.639412594      179535.806158131        8494.856009808            
        6967.925993640      183372.738899845        8522.648167210            
        6977.224967999      190598.377871050        8573.758113106            
        6986.536352208      189405.347252363        8573.081378249            
        6995.860162830      187274.792826417        8580.948785828            
        7005.196416448      187444.608786555        8615.281152144            
        7014.545129668      181123.966931782        8601.278894989            
        7023.906319118      188406.558159424        8696.928533133            
        7033.280001447      188542.559104376        8744.060810317            
        7042.666193328      188241.412292964        8781.830847944            
        7052.064911455      184256.151429619        8796.892091616            
        7061.476172546      181091.736185521        8826.965009756            
        7070.899993339      184404.064236219        8890.321566600            
        7080.336390595      182360.784019168        8918.629363572            
        7089.785381099      185372.426838379        8987.208213089            
        7099.246981656      195965.493391328        9095.337197438            
        7108.721209096      187868.199301607        9086.241803746            
        7118.208080269      176653.833765693        9056.779595611            
        7127.707612048      194304.227514152        9211.707270217            
        7137.219821331      199292.129835354        9297.569021378            
        7146.744725036      199385.335219986        9342.769198224            
        7156.282340103      186231.561679926        9287.150900396            
        7165.832683497      200006.544751193        9407.738366104            
        7175.395772204      188078.861633947        9377.777159735            
        7184.971623233      198786.118191049        9488.574621998            
        7194.560253616      202277.683753662        9545.087350389            
        7204.161680408      204059.446102394        9607.000974552            
        7213.775920685      196118.001841292        9595.296719472            
        7223.402991549      203421.001468670        9685.769945130            
        7233.042910122      196870.379472468        9687.821674650            
        7242.695693549      201527.451854926        9769.778162667            
        7252.361359000      202697.496631499        9829.780045273            
        7262.039923665      180208.958766523        9725.040471737            
        7271.731404760      200295.108752296        9909.442767188            
        7281.435819523      196384.935356280        9910.827553338            
        7291.153185212      198306.876343761        9983.482064219            
        7300.883519113      188638.416986195        9958.095519332            
        7310.626838531      202699.944016295       10108.080293096            
        7320.383160796      206577.019989409       10197.409611467            
        7330.152503262      202589.570415805       10212.308648254            
        7339.934883303      203870.474366909       10247.265769746            
        7349.730318320      197731.641282528       10234.859912406            
        7359.538825734      189203.449186871       10225.215084972            
        7369.360422992      186337.506755442       10236.550182164            
        7379.195127562      202385.013649689       10402.913279973            
        7389.042956936      197906.507214743       10434.779388422            
        7398.903928630      195762.587570430       10485.664559055            
        7408.778060183      211480.733458677       10631.375912743            
        7418.665369157      202475.257076470       10619.038007800            
        7428.565873138      203986.233280136       10661.503285592            
        7438.479589736      223756.149745212       10821.422408015            
        7448.406536582      211884.896345417       10774.498811592            
        7458.346731334      216171.574044205       10825.092594708            
        7468.300191672      244329.529088878       11024.970251716            
        7478.266935298      263346.173731616       11173.366517630            
        7488.246979939      274294.607944224       11270.387489120            
        7498.240343348      260155.390220246       11192.459274656            
        7508.247043297      259870.087888751       11223.048304267            
        7518.267097585      271086.761111986       11310.893227607            
        7528.300524034      297712.214654233       11509.864575312            
        7538.347340490      290788.828487153       11499.835828631            
        7548.407564821      285203.422682895       11501.317608283            
        7558.481214923      294589.459909473       11602.427286751            
        7568.568308711      277820.445120038       11568.602462535            
        7578.668864127      274410.761142550       11607.349504085            
        7588.782899135      256815.909921943       11531.272141285            
        7598.910431726      254642.558301560       11554.804538273            
        7609.051479912      246106.984644898       11523.027503854            
        7619.206061730      251961.100777367       11584.270632641            
        7629.374195241      243194.452614316       11555.888939396            
        7639.555898531      228231.925139435       11494.913085799            
        7649.751189708      221791.808027347       11506.352526911            
        7659.960086908      227318.856332056       11574.794987077            
        7670.182608286      229262.741356974       11628.302806410            
        7680.418772026      209217.405388013       11530.432428969            
        7690.668596334      219162.903596470       11606.357761551            
        7700.932099440      216932.721302672       11591.294142975            
        7711.209299598      199208.441522482       11494.963768643            
        7721.500215090      196616.768296014       11466.367127918            
        7731.804864217      220457.542151326       11607.570576947            
        7742.123265308      207883.619959921       11514.744942027            
        7752.455436716      214514.573304132       11550.612766623            
        7762.801396817      193579.191715607       11398.013604171            
        7773.161164014      215141.341880135       11535.951018416            
        7783.534756732      195736.179391431       11404.125140926            
        7793.922193422      196090.553496915       11391.294014451            
        7804.323492560      209535.888048260       11464.529105206            
        7814.738672645      193207.561004643       11305.366623081            
        7825.167752202      190799.723611951       11237.074608918            
        7835.610749780      205641.776282296       11260.656993154            
        7846.067683954      208957.254656476       11226.533390871            
        7856.538573322      219596.685521631       11190.396857803            
        7867.023436509      220118.041280459       11115.067894834            
        7877.522292163      205651.531168073       10935.637001548            
        7888.035158957      203173.117349000       10833.574559098            
        7898.562055590      207428.951181163       10769.472534990            
        7909.103000785      233607.515651344       10834.454848914            
        7919.658013291      211560.980357641       10635.319198535            
        7930.227111881      208764.999074421       10533.883106104            
        7940.810315353      214601.222296610       10475.794254995            
        7951.407642531      198243.299358563       10297.935918191            
        7962.019112264      201380.754501678       10237.751092210            
        7972.644743425      210528.496768890       10216.541313072            
        7983.284554913      205916.468641252       10102.733414177            
        7993.938565653      218370.285006819       10092.337124148            
        8004.606794594      215127.851406435        9987.862369531            
        8015.289260711      213774.395154252        9889.170091475            
        8025.985983004      197581.217611478        9707.799589882            
        8036.696980498      219927.343079499        9742.750293268            
        8047.422272244      216734.446146476        9654.236388965            
        8058.161877319      209927.557698212        9536.775195193            
        8068.915814823      211147.926827136        9467.859883768            
        8079.684103885      221271.366897970        9453.745744012            
        8090.466763657      202802.402426457        9292.756685661            
        8101.263813318      209033.205762826        9270.565711199            
        8112.075272070      211745.758846535        9226.020826033            
        8122.901159144      211495.510307667        9182.059876162            
        8133.741493795      206348.526677779        9099.117880668            
        8144.596295304      197037.403933835        9011.871956991            
        8155.465582977      205897.317319459        9016.576843918            
        8166.349376147      223034.891358777        9067.780496749            
        8177.247694172      228388.525514535        9067.017329849            
        8188.160556435      213139.900942422        8960.762232187            
        8199.087982347      217479.095340261        8958.209474924            
        8210.029991344      211038.183245593        8896.637955268            
        8220.986602886      218052.491272530        8911.732864814            
        8231.957836463      206701.633403224        8831.080726084            
        8242.943711587      215804.262929435        8859.224749514            
        8253.944247799      226676.146252211        8888.602459115            
        8264.959464663      218877.473401859        8832.343608203            
        8275.989381773      212097.576925261        8793.468775644            
        8287.034018745      225806.077305847        8853.982385739            
        8298.093395225      219464.123084251        8824.276129610            
        8309.167530883      222874.082919473        8842.551018592            
        8320.256445415      226150.410632016        8872.440551556            
        8331.360158544      198351.443063513        8744.100706213            
        8342.478690021      230744.011258519        8935.737405918            
        8353.612059619      229453.151816469        8938.993424838            
        8364.760287143      236279.795698548        9003.191416640            
        8375.923392419      233089.689118289        8993.973979042            
        8387.101395303      225398.963235585        8961.747291494            
        8398.294315677      235192.536161556        9022.265532104            
        8409.502173448      238636.887749583        9047.289783686            
        8420.724988551      239809.272800512        9051.696264631            
        8431.962780947      219307.306153210        8951.762702731            
        8443.215570624      231159.434752632        9007.797841907            
        8454.483377596      219405.170781880        8943.234287545            
        8465.766221905      218602.931309307        8944.917936356            
        8477.064123618      220246.304378620        8970.758676450            
        8488.377102831      221490.760705436        8990.692027342            
        8499.705179664      216645.232091693        8980.861958702            
        8511.048374266      228751.801919905        9055.619037466            
        8522.406706812      221542.239791725        9024.129142732            
        8533.780197505      225270.938753840        9045.753243076            
        8545.168866574      223476.147115255        9037.265211556            
        8556.572734275      228764.547792279        9065.471736822            
        8567.991820890      234702.611943871        9101.999044035            
        8579.426146731      226043.979996210        9062.691909130            
        8590.875732134      225845.532076035        9069.522058534            
        8602.340597465      230510.810902916        9090.399415750            
        8613.820763114      237938.841164004        9129.377603234            
        8625.316249501      216825.026156280        9025.520055187            
        8636.827077071      221781.452418345        9058.139758703            
        8648.353266299      246452.892174956        9186.129838539            
        8659.894837684      268486.905573705        9302.761689590            
        8671.451811756      279502.780491488        9372.542313615            
        8683.024209069      294619.173680052        9446.662428888            
        8694.612050207      307169.889596270        9506.820266667            
        8706.215355780      325360.076997790        9594.113311694            
        8717.834146425      329580.175517831        9607.262878408            
        8729.468442808      316955.300148423        9533.260250821            
        8741.118265623      315329.866232898        9518.979245686            
        8752.783635590      316145.488897001        9513.942699338            
        8764.464573457      282088.751057580        9338.934580942            
        8776.161099999      258529.287412783        9222.983225115            
        8787.873236022      253891.442480410        9201.729809080            
        8799.601002356      247490.486728423        9160.189041186            
        8811.344419861      245915.636160399        9160.667323135            
        8823.103509423      240603.060050344        9129.427219314            
        8834.878291958      253246.262706317        9186.675268156            
        8846.668788409      237414.874722278        9103.441268840            
        8858.475019746      236915.034411206        9106.499752962            
        8870.297006968      235199.211237497        9088.142670484            
        8882.134771103      233322.046256257        9076.868230259            
        8893.988333204      228423.623066648        9053.399198940            
        8905.857714356      233504.555337948        9073.475556758            
        8917.742935669      240738.735174820        9100.427416012            
        8929.644018282      247668.637343975        9129.555427118            
        8941.560983363      235380.385875315        9060.060618818            
        8953.493852109      226098.376772904        9012.393060173            
        8965.442645742      228395.243665241        9022.910212950            
        8977.407385515      245448.417674607        9115.006206123            
        8989.388092710      243975.620673190        9105.957189005            
        9001.384788634      254536.674077764        9157.916977247            
        9013.397494627      247786.209816319        9117.763580537            
        9025.426232053      229817.430067504        9025.313469693            
        9037.471022308      236928.723194427        9052.828651414            
        9049.531886815      247452.453272624        9100.468043471            
        9061.608847025      252806.422320269        9122.779659679            
        9073.701924418      235459.718299950        9032.899769672            
        9085.811140505      241412.430668955        9057.283941437            
        9097.936516822      234039.067934976        9007.464671190            
        9110.078074935      244327.853008763        9052.711173954            
        9122.235836441      236519.572100375        9017.189554971            
        9134.409822963      229895.537311982        8981.433842594            
        9146.600056155      244485.278612484        9053.295840483            
        9158.806557697      253069.076413755        9097.190219039            
        9171.029349301      247465.303731455        9070.066397034            
        9183.268452707      238023.998028760        9018.615527041            
        9195.523889683      230286.190163145        8984.350732266            
        9207.795682027      256592.586604248        9106.610617374            
        9220.083851566      245233.668050502        9044.039642181            
        9232.388420156      241147.950904774        9017.040617841            
        9244.709409682      233067.778864431        8964.743834162            
        9257.046842058      249036.509608184        9018.780012976            
        9269.400739229      252376.907795344        9022.029759024            
        9281.771123167      238303.352755483        8944.457614146            
        9294.158015874      257410.846644037        9021.926669685            
        9306.561439382      241711.285771069        8931.963588583            
        9318.981415752      246245.795598988        8950.793633562            
        9331.417967075      242646.003251122        8928.427733148            
        9343.871115470      253490.218330473        8981.567307992            
        9356.340883086      250732.809375217        8969.684754470            
        9368.827292104      249319.398126727        8963.486993095            
        9381.330364731      232919.620898113        8881.966796518            
        9393.850123205      238198.340545583        8900.480181558            
        9406.386589796      241859.291233380        8916.499262765            
        9418.939786799      244478.627244359        8932.607868130            
        9431.509736543      251758.879211807        8977.304925078            
        9444.096461385      252718.619833524        8991.051821935            
        9456.699983712      245338.887903809        8964.193631635            
        9469.320325941      254947.405656941        9018.250977628            
        9481.957510518      246603.111651307        8977.780376831            
        9494.611559921      244760.350420561        8964.261951890            
        9507.282496655      253497.761730658        8994.519838444            
        9519.970343259      253942.183092707        8986.709020990            
        9532.675122299      245571.962069537        8933.108281748            
        9545.396856372      253670.785156211        8959.282763098            
        9558.135568104      260118.092184949        8974.962798976            
        9570.891280155      255672.409933764        8945.356757582            
        9583.664015210      258502.768429729        8950.299503114            
        9596.453795988      250496.860898130        8893.002685878            
        9609.260645237      245153.345775280        8857.567604875            
        9622.084585736      258630.904271693        8903.445374431            
        9634.925640294      251549.975907820        8863.229726989            
        9647.783831749      240966.090575554        8804.888260914            
        9660.659182972      255042.854690358        8868.494868954            
        9673.551716864      256827.702767669        8874.667490014            
        9686.461456355      263184.564540854        8904.910029677            
        9699.388424407      253410.385078600        8851.082420897            
        9712.332644011      253497.703177534        8842.388867410            
        9725.294138192      255983.658636508        8852.647762387            
        9738.272930002      253335.030628043        8837.479277244            
        9751.269042526      268993.898793565        8911.959115749            
        9764.282498879      246638.715798966        8814.123050806            
        9777.313322206      247362.337744967        8830.699630020            
        9790.361535686      261687.150856606        8906.853501797            
        9803.427162526      252825.806578580        8879.334306470            
        9816.510225964      253218.179007772        8893.370098773            
        9829.610749271      257376.223346213        8923.808405700            
        9842.728755748      254732.616338503        8921.400258685            
        9855.864268725      258615.776048921        8948.582687657            
        9869.017311567      263728.046068382        8968.298702162            
        9882.187907668      262909.319142809        8956.972337131            
        9895.376080453      265773.448000174        8972.761831675            
        9908.581853379      247764.681732239        8891.336929898            
        9921.805249935      268082.711378675        8981.108679814            
        9935.046293639      265203.000515994        8976.739802647            
        9948.305008042      253126.913057852        8930.602982229            
        9961.581416727      265782.873368620        8979.373120972            
        9974.875543308      260806.116647955        8947.276066831            
        9988.187411429      252273.530601050        8888.830935430            
       10001.517044768      255538.641817311        8889.174995113            
       10014.864467032      257212.039515195        8882.075475748            
       10028.229701962      264414.365450082        8904.515411728            
       10041.612773330      268573.204485829        8911.108658098            
       10055.013704939      272266.035828207        8930.153547822            
       10068.432520624      265806.264010622        8889.141537271            
       10081.869244252      262177.974126346        8857.577764165            
       10095.323899722      257027.144240551        8819.111620490            
       10108.796510966      264008.203724661        8832.865908731            
       10122.287101944      271655.669803380        8830.197740024            
       10135.795696653      281314.935803964        8859.530089102            
       10149.322319119      263719.888518706        8765.490491155            
       10162.866993400      272010.793378352        8788.885182792            
       10176.429743588      270212.410806068        8761.037195052            
       10190.010593805      271066.098011867        8758.014947625            
       10203.609568208      270053.247512259        8722.720872835            
       10217.226690982      268616.472014601        8691.827091507            
       10230.861986348      256705.831881133        8611.481144432            
       10244.515478558      274887.882457918        8673.390758636            
       10258.187191897      261472.633131533        8588.094976720            
       10271.877150681      267049.306591728        8600.281564175            
       10285.585379259      268924.002767684        8596.679136909            
       10299.311902013      276551.615834878        8621.848872510            
       10313.056743358      281280.784388934        8630.845914585            
       10326.819927741      279431.752721364        8617.651423861            
       10340.601479640      275713.103890373        8597.394197687            
       10354.401423568      260021.019010484        8515.341913598            
       10368.219784071      275304.359740905        8566.929289028            
       10382.056585725      263976.077186657        8515.639529028            
       10395.911853141      263439.078264755        8510.120558298            
       10409.785610962      270531.647582517        8533.810979247            
       10423.677883866      287408.957875992        8601.273500349            
       10437.588696559      277403.050855266        8549.907702364            
       10451.518073786      264149.516605582        8474.395385043            
       10465.466040321      271793.850645402        8497.488974757            
       10479.432620971      281619.126643994        8518.224069181            
       10493.417840579      287511.663452068        8528.939125072            
       10507.421724019      270208.223348515        8441.551778040            
       10521.444296198      273270.400275655        8435.597567109            
       10535.485582057      292910.462538297        8496.733122960            
       10549.545606571      283494.681982217        8447.153836754            
       10563.624394747      299937.919719592        8502.976229605            
       10577.721971625      340924.211309679        8659.323583899            
       10591.838362281      357130.037429570        8720.461700319            
       10605.973591821      368876.129751186        8769.290239150            
       10620.127685387      396899.075771130        8869.942151645            
       10634.300668154      430178.312524759        9003.088927706            
       10648.492565330      445062.400585622        9073.625240468            
       10662.703402157      473359.660862908        9197.253872367            
       10676.933203912      481933.268305437        9237.397220818            
       10691.181995902      474837.629049778        9229.480378744            
       10705.449803472      462729.905661309        9198.818748007            
       10719.736651999      430591.818078169        9082.328874365            
       10734.042566894      403924.512433982        8994.881113738            
       10748.367573601      387271.319437595        8950.221328164            
       10762.711697599      367796.440034066        8895.397400439            
       10777.074964400      334574.335348956        8775.251292930            
       10791.457399553      321721.383986876        8752.108133175            
       10805.859028638      319934.550179249        8775.191127589            
       10820.279877269      310209.304639154        8760.782987333            
       10834.719971096      304816.236399092        8768.279911084            
       10849.179335803      297341.303156633        8763.972709457            
       10863.657997107      290640.788194083        8762.760474293            
       10878.155980760      292390.560904614        8803.648187773            
       10892.673312549      283520.812107435        8799.710204235            
       10907.210018295      290739.391319612        8865.360126995            
       10921.766123853      283149.056915645        8867.098677824            
       10936.341655112      279328.398476926        8884.667218377            
       10950.936637998      287655.885913634        8950.982451738            
       10965.551098468      288212.397711697        8990.657157950            
       10980.185062518      286990.099637824        9021.819520566            
       10994.838556174      282271.691433773        9025.570418306            
       11009.511605501      277149.803893232        9041.140316826            
       11024.204236595      287101.932941606        9118.971383874            
       11038.916475590      292071.343880149        9174.356097847            
       11053.648348653      289252.170207699        9191.110296107            
       11068.399881987      294244.594010223        9263.068133781            
       11083.171101828      282407.003725576        9243.642755764            
       11097.962034450      297480.983425073        9357.536654670            
       11112.772706160      293072.625794216        9368.461559637            
       11127.603143300      285966.282352857        9377.467745759            
       11142.453372248      287741.543631969        9431.895605959            
       11157.323419418      308311.687873684        9567.906019364            
       11172.213311256      310298.388381045        9634.949552085            
       11187.123074248      303007.419290151        9672.327265010            
       11202.052734911      305225.459778587        9750.158932535            
       11217.002319800      306992.462710650        9828.339941144            
       11231.971855505      319038.188238505        9950.545725727            
       11246.961368650      320270.895419281       10028.063173982            
       11261.970885897      300329.444421942        9984.724468366            
       11277.000433942      342997.149930458       10220.492871695            
       11292.050039516      340787.930558804       10243.649103314            
       11307.119729388      360396.427393339       10366.875264511            
       11322.209530360      335274.279477855       10264.506282822            
       11337.319469271      345202.837727187       10336.082431446            
       11352.449572997      326749.780962694       10287.825766489            
       11367.599868448      308938.047755353       10223.568549194            
       11382.770382571      317065.338385419       10286.761373251            
       11397.961142348      302146.643760009       10243.709561157            
       11413.172174798      322714.313464886       10356.568115284            
       11428.403506976      312252.855544089       10336.365124597            
       11443.655165973      303722.897861820       10331.366458450            
       11458.927178915      305006.807782420       10374.061748550            
       11474.219572966      312214.514021511       10444.101227212            
       11489.532375325      306975.171917196       10472.876665636            
       11504.865613227      320009.587941221       10565.498515825            
       11520.219313945      304759.488975233       10529.810606797            
       11535.593504788      294020.333265108       10515.367310203            
       11550.988213100      295632.592482624       10557.721894146            
       11566.403466262      289857.441054290       10564.306871179            
       11581.839291693      292941.347861288       10610.774522690            
       11597.295716846      300591.235134449       10680.804971447            
       11612.772769214      296337.811175231       10688.480624539            
       11628.270476324      289509.093514049       10682.574706489            
       11643.788865740      283754.239116172       10691.889659186            
       11659.327965064      290977.286486450       10766.351781172            
       11674.887801934      302202.913891612       10870.559130627            
       11690.468404025      301124.409794612       10910.118763041            
       11706.069799049      307982.410777531       10988.302685979            
       11721.692014755      289745.377734840       10941.096821415            
       11737.335078930      299924.880547332       11045.145775589            
       11752.999019396      304610.631352911       11113.431864225            
       11768.683864013      304409.733822384       11153.684965794            
       11784.389640679      309999.596050099       11231.666352382            
       11800.116377329      303203.768539414       11237.137398548            
       11815.864101935      303910.965453335       11271.151790916            
       11831.632842505      310830.923537551       11341.280808051            
       11847.422627087      296123.767991423       11304.407076219            
       11863.233483764      305232.937810751       11384.283506665            
       11879.065440658      318034.654470721       11481.066318426            
       11894.918525928      297216.735569528       11411.631673270            
       11910.792767771      304950.342656962       11483.547225989            
       11926.688194421      317021.909158052       11587.039530166            
       11942.604834151      306261.586433471       11570.543004514            
       11958.542715269      331748.433835873       11736.054519637            
       11974.501866123      308176.137563932       11658.659277537            
       11990.482315098      321967.141264854       11763.928521796            
       12006.484090619      307966.469913250       11734.103348737            
       12022.507221145      314622.032927914       11802.829958862            
       12038.551735176      312418.852893954       11824.015620731            
       12054.617661249      303473.957792718       11807.701656013            
       12070.705027940      301802.245507588       11827.230045613            
       12086.813863861      324672.341529395       11961.624628729            
       12102.944197664      316840.293655196       11939.247520099            
       12119.096058040      306753.812417115       11918.818559253            
       12135.269473715      321016.583209006       12013.947975640            
       12151.464473457      347591.499532858       12168.362600663            
       12167.681086070      327175.432283816       12088.665908080            
       12183.919340398      308335.751132641       12007.741298177            
       12200.179265322      319242.625124467       12070.655790236            
       12216.460889762      308854.831752907       12030.467121823            
       12232.764242677      318846.972143963       12112.464730795            
       12249.089353066      335789.712601370       12209.835534464            
       12265.436249963      321071.326116402       12149.661683124            
       12281.804962445      322606.837988733       12175.161441521            
       12298.195519624      320792.722873149       12174.199910945            
       12314.607950654      321040.184431457       12194.158516855            
       12331.042284726      320615.126347048       12209.230757608            
       12347.498551070      316709.182819255       12219.622754344            
       12363.976778956      322903.966701989       12273.212317128            
       12380.476997693      320664.902662037       12289.558142644            
       12396.999236628      324658.887493117       12335.736193548            
       12413.543525147      334108.121482204       12408.563531731            
       12430.109892678      341199.696348748       12459.571780852            
       12446.698368685      322451.587663773       12384.528522214            
       12463.308982673      322442.170522635       12418.209003782            
       12479.941764186      327958.870578118       12461.592299851            
       12496.596742807      323218.958524965       12467.988646068            
       12513.273948160      316187.725466051       12466.238198977            
       12529.973409906      329858.760390954       12562.304275745            
       12546.695157749      338865.303652635       12630.435340792            
       12563.439221429      330565.409529818       12612.244708142            
       12580.205630727      318405.870748724       12569.829500519            
       12596.994415466      316988.758196049       12582.714933414            
       12613.805605506      326575.129184547       12670.189208013            
       12630.639230748      324699.271225880       12690.370885734            
       12647.495321131      323594.033571057       12702.920133804            
       12664.373906638      334842.514632404       12787.175129989            
       12681.275017289      333325.515631844       12792.200667254            
       12698.198683144      324502.880200532       12767.135057155            
       12715.144934304      331916.941969380       12825.967183824            
       12732.113800910      338966.473777160       12888.433258397            
       12749.105313143      331258.951062552       12871.625609855            
       12766.119501225      333256.959451720       12910.863838172            
       12783.156395418      340843.879142741       12977.009615992            
       12800.216026024      315674.218061034       12857.221906337            
       12817.298423386      320401.198971617       12912.866971522            
       12834.403617886      316766.638348590       12914.492542549            
       12851.531639948      330230.535532500       13007.891667336            
       12868.682520037      334425.398652011       13025.746861572            
       12885.856288658      336628.579503722       13022.020399283            
       12903.052976355      322993.603021652       12939.281295028            
       12920.272613717      335675.189809700       12992.575171643            
       12937.515231369      343175.706705088       13023.056615540            
       12954.780859981      332586.272228421       12952.965606606            
       12972.069530260      337072.575689845       12977.883664806            
       12989.381272958      313293.387480790       12822.327079707            
       13006.716118864      334803.521319416       13185.310135298            
       13024.074098812      346135.634555373       13621.750288655            
