{"redRecord": "/SNS/SNAP/IPTS-30264/shared/SNAPRed/04bd2c53f6bf6754/lite/59058/None/ReductionRecord.json"
"attenuationMethod": null
"backgroundMethod": null}
# Total flight path 15.5806m, tth 85.3035deg, DIFC 5218.45
# Data for spectrum :0
BANK 1 863 863 SLOG       4123      13024  0.0013345 0 FXYE
        4125.524418352      111106.546856644       11913.410521409            
        4131.030094763      102653.209191157       11293.687090987            
        4136.543118719      116532.136362535       11028.308504625            
        4142.063500025      104397.395206750       10806.752926922            
        4147.591248499      113553.700377854       10792.335161184            
        4153.126373973      109110.755374707       10647.534211751            
        4158.668886292      106819.463368677       10535.726669088            
        4164.218795314      106197.219208162       10445.092425093            
        4169.776110911      111074.018992727       10413.273148941            
        4175.340842966      105024.813057225       10285.693821498            
        4180.913001378      111103.572425268       10262.751349078            
        4186.492596056       98795.913726432       10073.476829587            
        4192.079636926      114707.868099713       10137.237126413            
        4197.674133923       97829.230856223        9926.582516202            
        4203.276097000      116672.547720472       10009.252552634            
        4208.885536119      114241.830958578        9928.845688927            
        4214.502461258      117220.175282292        9889.821569685            
        4220.126882406      123244.593130286        9889.704592990            
        4225.758809568      108377.955350976        9743.718706962            
        4231.398252762      114922.214833076        9759.180590835            
        4237.045222016      112764.542094877        9717.144171256            
        4242.699727375      106951.492839926        9625.047272605            
        4248.361778897      101884.816992895        9511.948039523            
        4254.031386652      111423.631673846        9500.324144290            
        4259.708560723      109172.363188547        9426.792935016            
        4265.393311209       99548.989740030        9291.250530022            
        4271.085648221      106925.737845021        9283.494767477            
        4276.785581883      112475.574521247        9280.689928111            
        4282.493122333      100516.551765273        9130.477612914            
        4288.208279723      112559.433200122        9151.260519529            
        4293.931064218      117398.318480576        9118.452622233            
        4299.661485996      112619.004166231        9024.836985921            
        4305.399555250      104216.077640313        8913.722846290            
        4311.145282186      103058.273429407        8862.747841534            
        4316.898677022      106617.884827789        8864.728666583            
        4322.659749993      114674.840450139        8853.984255019            
        4328.428511345       99517.277941592        8713.667789148            
        4334.204971339      101319.170982451        8685.387493187            
        4339.989140248      104050.088889063        8651.399424635            
        4345.781028360      107744.417851146        8617.002859925            
        4351.580645978      105650.160164766        8550.285490716            
        4357.388003415      116186.498639101        8561.606522087            
        4363.203111003      102629.667475868        8396.721753614            
        4369.025979082      113274.550180594        8410.496800535            
        4374.856618011      116662.362405207        8374.299304927            
        4380.695038159      111311.076165839        8285.571578682            
        4386.541249911      110080.874532327        8239.562389073            
        4392.395263665      109142.928221595        8193.965223050            
        4398.257089834      119188.112749937        8227.022291191            
        4404.126738842      106277.169562331        8101.806941131            
        4410.004221131      115635.227651814        8133.444387299            
        4415.889547153      124769.755317178        8139.765990329            
        4421.782727377      131137.429998595        8134.836509876            
        4427.683772285      117036.417571519        8009.139909780            
        4433.592692371      123286.071253812        8013.230283156            
        4439.509498147      124807.802525224        7979.181989804            
        4445.434200135      123854.774916596        7933.598256048            
        4451.366808873      123705.392885171        7893.261314933            
        4457.307334914      123194.515017415        7851.876711068            
        4463.255788823      115435.750654858        7757.153474892            
        4469.212181181      113122.713941990        7704.913457905            
        4475.176522580      131102.587942742        7771.506199450            
        4481.148823631      123784.049927712        7690.946271037            
        4487.129094955      130686.550285620        7669.343333982            
        4493.117347189      130770.180665033        7645.757496537            
        4499.113590984      129172.889403964        7601.069623818            
        4505.117837004      124066.298301965        7538.066982119            
        4511.130095930      120189.785851639        7472.092517327            
        4517.150378454      126898.621086731        7500.589816202            
        4523.178695284      128256.895222648        7454.633785350            
        4529.215057144      137739.307974095        7464.929223420            
        4535.259474768      124456.102845671        7354.448590724            
        4541.311958908      110406.902907888        7240.517660222            
        4547.372520328      122499.263228298        7288.815547236            
        4553.441169809      119383.357696530        7260.349727233            
        4559.517918144      128043.530449276        7296.109157657            
        4565.602776142      118893.019807006        7233.525713547            
        4571.695754624      113657.329631310        7200.490125969            
        4577.796864429      113281.235718922        7194.728732177            
        4583.906116407      117719.705446690        7208.722412146            
        4590.023521425      108722.371863613        7146.292193977            
        4596.149090363       90653.439519194        7011.392146840            
        4602.282834116      106877.032445015        7068.822563876            
        4608.424763595      110116.303643025        7050.865940703            
        4614.574889723      112530.917761212        7037.878405612            
        4620.733223438      104007.150677693        6957.058254025            
        4626.899775695      110562.554930328        6966.710400560            
        4633.074557461      119466.228512375        6992.576045974            
        4639.257579719      117742.060724833        6961.294846682            
        4645.448853466      118936.012815027        6937.877709534            
        4651.648389714      123435.226348146        6954.484978662            
        4657.856199490      116920.080893395        6899.590158954            
        4664.072293835      103790.770950788        6812.628539001            
        4670.296683805      112280.235115087        6839.940625772            
        4676.529380471      115628.106944018        6845.649865546            
        4682.770394918      119725.273408530        6845.962602432            
        4689.019738248      113377.015785431        6798.972611140            
        4695.277421574      108309.182890550        6754.922709022            
        4701.543456028      104428.813251160        6718.404414170            
        4707.817852754      115283.039016401        6759.141237156            
        4714.100622912      113303.832723104        6734.629417764            
        4720.391777677      114947.904502760        6734.370303979            
        4726.691328238      121132.377752302        6753.935680234            
        4732.999285800      115516.194844161        6714.944483648            
        4739.315661582      113723.988735357        6709.719083373            
        4745.640466819      112440.958838219        6703.318557465            
        4751.973712759      115806.242061758        6718.257389733            
        4758.315410669      117826.084450175        6734.411877789            
        4764.665571826      119403.785985094        6739.350793900            
        4771.024207526      133291.943882662        6795.378916080            
        4777.391329079      118535.529447089        6694.733013277            
        4783.766947808      121944.949642894        6694.272205051            
        4790.151075054      129930.012281793        6714.817597897            
        4796.543722172      128203.798059651        6700.356420931            
        4802.944900531      129909.375142176        6708.890620080            
        4809.354621518      138970.408559997        6754.963542236            
        4815.772896532      131129.117244538        6710.707521851            
        4822.199736990      129404.386703535        6698.631701962            
        4828.635154321      135807.415019037        6723.204926092            
        4835.079159973      146950.935707674        6771.514528324            
        4841.531765407      147364.265538562        6772.238714351            
        4847.992982100      149089.264750750        6779.060551009            
        4854.462821543      150381.444603233        6781.978403628            
        4860.941295244      141629.044645883        6727.299506592            
        4867.428414726      143039.510791884        6725.931900026            
        4873.924191527      132109.252155196        6658.580045226            
        4880.428637200      137376.103232155        6677.402796826            
        4886.941763315      136879.724308213        6664.348700118            
        4893.463581455      134431.627835411        6644.159875080            
        4899.994103222      131991.736685063        6632.484840273            
        4906.533340229      135370.013602840        6649.463884070            
        4913.081304108      136283.436542904        6655.375177509            
        4919.638006506      127333.257805528        6619.742691074            
        4926.203459083      129998.129168470        6642.994875695            
        4932.777673518      128148.775883748        6643.415797207            
        4939.360661504      134622.602449966        6692.211704866            
        4945.952434749      130267.647519746        6680.617317680            
        4952.553004978      133863.109192541        6716.236228896            
        4959.162383930      124834.332541836        6677.247413341            
        4965.780583361      127855.521431509        6700.739172292            
        4972.407615042      132984.601607526        6740.483289221            
        4979.043490761      132226.587475666        6743.944433002            
        4985.688222320      123513.289321711        6697.930885829            
        4992.341821538      121015.777964771        6691.670710594            
        4999.004300248      120259.512577550        6698.032802165            
        5005.675670301      124576.490061572        6725.339466713            
        5012.355943562      134381.083580670        6784.648072500            
        5019.045131914      132246.712935284        6782.074094831            
        5025.743247254      133914.005489887        6804.850097854            
        5032.450301496      125642.045835577        6773.313932791            
        5039.166306567      115786.008869725        6734.985063853            
        5045.891274415      127433.874181091        6810.336817178            
        5052.625217000      130858.388044279        6845.467253712            
        5059.368146299      139888.793721156        6915.724959904            
        5066.120074305      118597.952580042        6836.513859418            
        5072.881013028      124740.860357880        6888.842243666            
        5079.650974492      129845.585743611        6940.510648601            
        5086.429970739      135558.622225678        6989.278255632            
        5093.218013827      136568.041759654        7006.029385469            
        5100.015115827      137802.487906378        7015.038020830            
        5106.821288831      135316.264351116        7016.665311941            
        5113.636544943      139713.788949822        7048.386489317            
        5120.460896286      147835.208020262        7118.359106464            
        5127.294354997      143027.299640745        7124.393302766            
        5134.136933230      133561.635708273        7091.816310469            
        5140.988643156      133923.429450072        7110.063255014            
        5147.849496961      129962.145591357        7113.270949653            
        5154.719506849      138782.397995732        7160.545813109            
        5161.598685038      139139.607037153        7170.974786041            
        5168.487043764      128880.471957552        7129.656133938            
        5175.384595279      141985.296948738        7200.236479499            
        5182.291351850      132270.496022946        7151.715947302            
        5189.207325763      135689.965106327        7174.473001920            
        5196.132529318      143741.467651222        7223.685710836            
        5203.066974833      132912.419244398        7178.242832367            
        5210.010674641      142059.545942914        7247.981019125            
        5216.963641092      138281.870982833        7240.577058650            
        5223.925886554      141359.426476801        7283.402742374            
        5230.897423409      134710.261730250        7258.716640032            
        5237.878264058      143297.911236792        7319.012316270            
        5244.868420916      143203.572238633        7349.963483781            
        5251.867906416      132782.939292880        7327.286171829            
        5258.876733008      142378.286488692        7403.148237689            
        5265.894913158      133347.754627031        7379.679619986            
        5272.922459348      133338.431978568        7407.061897436            
        5279.959384078      132056.562135114        7416.551859711            
        5287.005699865      128559.450376991        7406.575864927            
        5294.061419239      145632.901890897        7511.445245797            
        5301.126554752      134189.584572543        7462.421808207            
        5308.201118970      124546.582766786        7415.414902205            
        5315.285124474      137486.727464600        7478.635623015            
        5322.378583866      131383.711335106        7451.027831570            
        5329.481509761      129181.861890209        7429.273730523            
        5336.593914794      143727.212726258        7496.627069794            
        5343.715811614      137281.685936313        7458.646106367            
        5350.847212888      140048.796642390        7472.058624192            
        5357.988131301      142189.995401544        7480.485577220            
        5365.138579553      142987.572436278        7481.916595617            
        5372.298570364      135783.606852468        7440.262198676            
        5379.468116466      143783.991388331        7482.052236052            
        5386.647230613      147133.913746139        7500.892798055            
        5393.835925574      133667.907572881        7417.185363146            
        5401.034214134      135548.385172203        7437.376177713            
        5408.242109096      147218.677435786        7505.887522745            
        5415.459623280      140188.790403757        7461.637486416            
        5422.686769525      146576.622172517        7494.476249458            
        5429.923560683      143566.662206656        7483.851644425            
        5437.170009627      148367.821331755        7512.743464158            
        5444.426129246      142642.581086122        7495.869896002            
        5451.691932444      128448.378831041        7438.369148931            
        5458.967432146      149527.370007554        7574.837060411            
        5466.252641292      141253.960333804        7546.668818986            
        5473.547572839      150083.530519941        7613.704981723            
        5480.852239762      142912.274393961        7588.050690891            
        5488.166655054      137657.243361565        7580.228845258            
        5495.490831723      157710.933194111        7706.971558339            
        5502.824782798      143385.121040183        7648.851714328            
        5510.168521323      147780.270753759        7691.360807524            
        5517.522060358      150986.794123474        7728.145453310            
        5524.885412984      147996.426212907        7737.737299117            
        5532.258592296      144948.176952387        7754.911286245            
        5539.641611410      151381.308201835        7827.197486816            
        5547.034483456      147491.343122989        7836.305755302            
        5554.437221585      155477.648304427        7915.023389983            
        5561.849838961      137426.757933272        7849.085892379            
        5569.272348770      145595.293994922        7912.977351377            
        5576.704764214      145691.843004532        7934.294702716            
        5584.147098512      139542.752549783        7944.497319873            
        5591.599364901      148668.774415170        8036.398671096            
        5599.061576635      144963.569801497        8058.050111970            
        5606.533746988      145990.036205350        8097.144157175            
        5614.015889250      139290.524140311        8121.547821953            
        5621.508016728      131953.392795690        8134.271822682            
        5629.010142748      147784.403388144        8252.957441238            
        5636.522280654      157086.630176052        8344.454346934            
        5644.044443806      140096.804558649        8291.892220124            
        5651.576645585      147039.110269184        8356.820244577            
        5659.118899386      142939.299698829        8340.386620700            
        5666.671218625      143995.386556435        8361.336294321            
        5674.233616734      145873.460941933        8387.931089218            
        5681.806107164      146422.253214256        8408.442348795            
        5689.388703384      148848.112391487        8420.702671645            
        5696.981418880      156697.896767970        8476.913585174            
        5704.584267157      155681.527262838        8487.902786359            
        5712.197261737      150034.831170632        8456.024345839            
        5719.820416162      146484.587270057        8425.809927165            
        5727.453743989      144654.929394228        8396.560896173            
        5735.097258795      140234.097285148        8356.581521711            
        5742.750974177      147261.348148630        8379.200226692            
        5750.414903745      148724.408578766        8374.116593593            
        5758.089061133      140249.650773902        8314.681494660            
        5765.773459989      141752.262851065        8318.115427037            
        5773.468113980      146200.797271082        8334.096393294            
        5781.173036794      145492.552840371        8313.245320755            
        5788.888242133      158559.933355671        8355.442437964            
        5796.613743721      149754.607135062        8274.635113788            
        5804.349555298      144628.541230818        8213.427786768            
        5812.095690623      147963.094353529        8185.725891069            
        5819.852163474      147864.977752119        8153.234063811            
        5827.618987646      149556.560960481        8136.741556259            
        5835.396176954      151487.292763308        8121.564832149            
        5843.183745230      159937.161505768        8130.568301558            
        5850.981706326      154995.689824414        8075.705401639            
        5858.790074112      148372.621352013        8012.999965542            
        5866.608862474      148442.959184354        7969.769050206            
        5874.438085321      158456.279186179        7984.371526530            
        5882.277756577      149529.892067733        7902.991691283            
        5890.127890186      145307.418412058        7834.366044846            
        5897.988500110      153367.738238130        7825.024583260            
        5905.859600331      149553.076805752        7760.020918404            
        5913.741204848      161873.791355686        7790.824408704            
        5921.633327680      168475.466372008        7781.186297527            
        5929.535982864      160110.632176531        7702.313090719            
        5937.449184456      152086.091848489        7630.150221092            
        5945.372946529      159048.595844149        7633.524517560            
        5953.307283178      151455.913116550        7557.132622113            
        5961.252208516      157185.919692530        7553.909492671            
        5969.207736672      168856.938426226        7569.774629160            
        5977.173881796      157078.413404441        7461.038581799            
        5985.150658058      152424.860642196        7388.597708564            
        5993.138079646      142973.460683219        7291.163281942            
        6001.136160765      148071.502642907        7268.454208638            
        6009.144915641      156053.723698781        7276.740108499            
        6017.164358519      161625.848236178        7263.908188415            
        6025.194503663      154408.254741541        7189.449182361            
        6033.235365355      160381.463295441        7170.453773824            
        6041.286957897      163882.691172299        7145.285018244            
        6049.349295609      161074.562141343        7077.087396118            
        6057.422392831      171362.026414221        7079.763868586            
        6065.506263923      158931.372125144        6981.997266043            
        6073.600923262      164547.571238325        6964.708118760            
        6081.706385246      153225.455956165        6861.778437681            
        6089.822664291      150974.162804587        6801.548777009            
        6097.949774834      159337.810860206        6798.809517855            
        6106.087731328      163027.250496006        6771.752712971            
        6114.236548250      159696.643142871        6719.565124850            
        6122.396240091      160970.671127216        6696.718683155            
        6130.566821366      171310.203667920        6711.325439507            
        6138.748306607      163376.240142545        6648.574116914            
        6146.940710365      158752.795554891        6598.002310379            
        6155.144047212      166889.009131570        6614.063553326            
        6163.358331737      157507.046403567        6551.468515655            
        6171.583578553      155542.455248445        6534.351076211            
        6179.819802287      159438.823010076        6537.468247172            
        6188.067017589      167499.732539295        6550.355377193            
        6196.325239129      171579.328520501        6553.415560133            
        6204.594481593      171415.288577355        6527.687037919            
        6212.874759690      167022.067343407        6491.758807574            
        6221.166088148      169448.928466819        6481.765030730            
        6229.468481713      180215.883580317        6512.274690099            
        6237.781955153      193343.386272697        6548.863693804            
        6246.106523254      191921.984002491        6522.093557188            
        6254.442200821      204732.909303000        6549.463219530            
        6262.789002682      223534.753192674        6602.768375526            
        6271.146943683      228570.628983158        6604.582741687            
        6279.516038687      229374.869611323        6584.379818952            
        6287.896302582      235209.213336976        6594.730337630            
        6296.287750273      225649.600707058        6536.299557595            
        6304.690396684      218547.087085865        6492.268815066            
        6313.104256761      210262.973175062        6436.447224425            
        6321.529345468      211313.641040031        6415.379428481            
        6329.965677792      203331.149683270        6355.141790289            
        6338.413268737      197523.304791851        6310.111938932            
        6346.872133327      186297.128445479        6243.689561939            
        6355.342286609      181413.818785791        6203.233973674            
        6363.823743648      180264.818239954        6190.151112419            
        6372.316519528      173382.956159804        6158.878175647            
        6380.820629355      175926.320617687        6173.488657017            
        6389.336088256      177430.403740392        6180.877279023            
        6397.862911374      173724.320960004        6169.780921998            
        6406.401113877      163690.981277467        6124.923280537            
        6414.950710952      169597.631175684        6148.938763136            
        6423.511717803      164399.833026397        6123.169925516            
        6432.084149658      167415.784808123        6136.075201394            
        6440.668021765      172437.662365746        6164.911633474            
        6449.263349391      166347.922139346        6149.969134023            
        6457.870147823      170941.566465050        6182.887424124            
        6466.488432369      173520.667400930        6208.629906968            
        6475.118218360      168880.031710148        6207.447388380            
        6483.759521143      165648.241260861        6211.779370283            
        6492.412356088      167702.512680397        6233.598960415            
        6501.076738585      170127.139179308        6250.844810490            
        6509.752684046      162575.663975723        6226.484809299            
        6518.440207901      174566.264787284        6282.704804264            
        6527.139325602      175708.355290716        6288.911051429            
        6535.850052621      176063.328135372        6295.978569080            
        6544.572404452      173064.859811544        6293.836583688            
        6553.306396609      179332.405877629        6333.896940730            
        6562.052044625      170708.288284225        6314.973398930            
        6570.809364057      172481.184967464        6328.910395005            
        6579.578370479      170445.314371792        6334.652493313            
        6588.359079490      174785.429361791        6368.708007863            
        6597.151506705      176508.596450840        6388.234168087            
        6605.955667765      180495.549340376        6416.756436625            
        6614.771578328      178242.072805894        6427.017083982            
        6623.599254074      173206.948552039        6427.239321661            
        6632.438710704      174432.433922035        6448.158618101            
        6641.289963941      165679.728879398        6430.255422077            
        6650.153029527      178279.030782303        6500.247922983            
        6659.027923226      180268.434419987        6523.220871938            
        6667.914660825      168170.682441216        6477.374605228            
        6676.813258128      169832.252888123        6493.406548425            
        6685.723730963      180049.890163874        6556.387299508            
        6694.646095178      175805.904858540        6553.334746562            
        6703.580366644      178493.294022557        6586.973273298            
        6712.526561250      172644.863624157        6577.811066358            
        6721.484694908      175747.257295216        6607.764487441            
        6730.454783552      179082.020786279        6633.614339256            
        6739.436843136      173803.956584631        6625.047379434            
        6748.430889636      178828.599368833        6662.776184387            
        6757.436939049      181298.923572476        6692.444578910            
        6766.455007392      180035.391276891        6715.776284007            
        6775.485110707      170762.051007373        6693.749349111            
        6784.527265054      172651.409779150        6728.282298045            
        6793.581486515      174411.040941731        6760.982344936            
        6802.647791195      180640.749597606        6815.761799668            
        6811.726195219      178988.209003875        6832.087211689            
        6820.816714734      177761.878793460        6847.386810264            
        6829.919365909      178831.904102724        6867.339428231            
        6839.034164934      163257.569659621        6813.354952996            
        6848.161128021      167521.317286924        6849.326422780            
        6857.300271403      179089.838657202        6908.419408255            
        6866.451611335      184490.027014233        6938.867661753            
        6875.615164095      175843.375840663        6896.942319787            
        6884.790945980      181776.002257636        6919.877487025            
        6893.978973311      177362.262771601        6903.499700296            
        6903.179262430      180702.713642611        6930.935275885            
        6912.391829700      180447.993068615        6932.359620872            
        6921.616691508      178818.818668971        6949.034911709            
        6930.853864261      172120.734429644        6937.554966760            
        6940.103364388      178901.865935097        6983.371931594            
        6949.365208342      175400.209575278        6974.394941710            
        6958.639412594      176887.704128165        6998.913255995            
        6967.925993640      181977.405825344        7026.859888988            
        6977.224967999      178879.804500206        7015.130615264            
        6986.536352208      180786.802469653        7029.110835558            
        6995.860162830      184199.725594379        7064.625592204            
        7005.196416448      172570.196451576        7034.220322064            
        7014.545129668      194430.523845486        7166.255817016            
        7023.906319118      177228.443803894        7119.360952470            
        7033.280001447      184230.307972046        7194.456303757            
        7042.666193328      184440.841098216        7228.510132325            
        7052.064911455      182834.777419954        7254.191914878            
        7061.476172546      184307.960374253        7304.951775638            
        7070.899993339      177603.525303370        7305.771444150            
        7080.336390595      182043.848881593        7361.909356528            
        7089.785381099      178541.190016690        7384.307502623            
        7099.246981656      181085.461926567        7428.345299403            
        7108.721209096      179900.717397615        7457.367140258            
        7118.208080269      181980.851075307        7503.236801084            
        7127.707612048      181765.231747008        7533.364628621            
        7137.219821331      187383.458181729        7605.500324735            
        7146.744725036      180546.402067570        7607.898791841            
        7156.282340103      190715.175243435        7686.723368316            
        7165.832683497      186491.442514651        7690.307408165            
        7175.395772204      178263.132099657        7689.639346750            
        7184.971623233      181952.832810818        7740.890153791            
        7194.560253616      188686.881299235        7802.703639788            
        7204.161680408      182441.351593056        7810.711146068            
        7213.775920685      189451.312328271        7882.848291898            
        7223.402991549      190557.573052383        7922.552274385            
        7233.042910122      178451.102681067        7897.241390506            
        7242.695693549      187920.276457503        7990.642043302            
        7252.361359000      195181.491807001        8072.592909652            
        7262.039923665      192517.560281206        8098.097194337            
        7271.731404760      183430.967824826        8087.837823863            
        7281.435819523      196199.981543743        8178.704391398            
        7291.153185212      181714.746906369        8148.385729068            
        7300.883519113      187655.465246221        8214.086939329            
        7310.626838531      199462.611200357        8320.156371766            
        7320.383160796      175636.852845083        8243.356164486            
        7330.152503262      183450.083747010        8321.129269859            
        7339.934883303      184801.986918714        8349.296794478            
        7349.730318320      184120.281696503        8369.781819352            
        7359.538825734      183098.806322894        8406.847807919            
        7369.360422992      185842.895385823        8448.676602924            
        7379.195127562      193739.448412403        8536.891885519            
        7389.042956936      183606.833448044        8535.828879006            
        7398.903928630      184009.419891432        8594.089226597            
        7408.778060183      192024.720363582        8667.373788327            
        7418.665369157      194834.686755968        8721.754721987            
        7428.565873138      200735.938676077        8779.320547218            
        7438.479589736      194940.757259876        8771.385587042            
        7448.406536582      188414.280923354        8763.823682631            
        7458.346731334      184224.734255186        8762.276583510            
        7468.300191672      195113.445707417        8832.204056824            
        7478.266935298      193746.095586832        8843.481080483            
        7488.246979939      191596.172355206        8853.993552157            
        7498.240343348      200849.159257247        8915.581614665            
        7508.247043297      200244.080754926        8937.671692084            
        7518.267097585      182213.518365153        8852.934367451            
        7528.300524034      212836.405716682        9036.587749660            
        7538.347340490      186675.247359909        8927.566549125            
        7548.407564821      194809.993267533        9001.644556497            
        7558.481214923      200273.129766264        9066.003044522            
        7568.568308711      198685.250089129        9123.344884996            
        7578.668864127      207977.386817936        9224.125905082            
        7588.782899135      205806.542964514        9245.079957681            
        7598.910431726      222026.899556077        9359.583323407            
        7609.051479912      227131.557435023        9406.130573750            
        7619.206061730      247242.724046907        9527.219222336            
        7629.374195241      255677.413650994        9594.734006735            
        7639.555898531      250030.531218817        9597.130339885            
        7649.751189708      267313.372794304        9731.597932100            
        7659.960086908      281812.534099559        9831.249139094            
        7670.182608286      277170.689865143        9840.913141130            
        7680.418772026      277052.420865823        9868.601631339            
        7690.668596334      283338.907604613        9908.107636697            
        7700.932099440      279208.195031674        9886.830894839            
        7711.209299598      273010.199125771        9872.277175413            
        7721.500215090      257927.284058542        9788.601875025            
        7731.804864217      264810.036892291        9810.256310043            
        7742.123265308      261725.021847163        9786.423658128            
        7752.455436716      261178.768260436        9776.542211097            
        7762.801396817      244194.902561367        9681.264379656            
        7773.161164014      236228.388578896        9637.710412577            
        7783.534756732      235313.768740308        9627.055236337            
        7793.922193422      241704.843291468        9645.833423787            
        7804.323492560      236285.674365450        9610.502543726            
        7814.738672645      223279.119914681        9500.211917479            
        7825.167752202      229514.149367212        9485.085617225            
        7835.610749780      203980.305150719        9306.661265439            
        7846.067683954      210985.777177223        9296.321764581            
        7856.538573322      202042.286678150        9169.841210930            
        7867.023436509      211261.980187733        9152.471277488            
        7877.522292163      213082.078180807        9088.297660539            
        7888.035158957      200272.730420549        8957.529053068            
        7898.562055590      207375.245532877        8919.967014584            
        7909.103000785      206494.799845965        8844.336808872            
        7919.658013291      203289.794571127        8775.103543064            
        7930.227111881      206597.447226814        8721.396963597            
        7940.810315353      205656.979357308        8641.118766522            
        7951.407642531      202550.542614054        8557.789676882            
        7962.019112264      206496.125394637        8510.621594062            
        7972.644743425      200375.113667261        8421.396415666            
        7983.284554913      199751.861958968        8345.467628644            
        7993.938565653      210921.089303322        8327.000912980            
        8004.606794594      209579.187477173        8249.798952467            
        8015.289260711      202256.409892940        8141.063906772            
        8025.985983004      212533.069089234        8107.842562932            
        8036.696980498      205719.909813929        8002.562553815            
        8047.422272244      219631.647922867        8002.054336877            
        8058.161877319      205985.270028968        7875.018051916            
        8068.915814823      218157.531763396        7862.131834460            
        8079.684103885      212353.949995969        7778.540358549            
        8090.466763657      216763.671219666        7745.913950952            
        8101.263813318      210450.389072371        7669.905957760            
        8112.075272070      224291.900637159        7678.422335200            
        8122.901159144      216523.953505496        7610.424837481            
        8133.741493795      215520.088192589        7560.092785685            
        8144.596295304      212455.322614612        7515.821842948            
        8155.465582977      215436.002748973        7493.454149969            
        8166.349376147      214171.133605977        7454.747636269            
        8177.247694172      204720.025917014        7391.867077416            
        8188.160556435      211304.223381342        7397.474198084            
        8199.087982347      219967.926600835        7410.974516364            
        8210.029991344      220663.180400981        7389.827065542            
        8220.986602886      221258.206739142        7373.151117158            
        8231.957836463      216131.248641945        7333.886812426            
        8242.943711587      220828.859707936        7336.656149658            
        8253.944247799      222185.730472232        7319.619671786            
        8264.959464663      213763.337058160        7273.424594349            
        8275.989381773      214208.424968584        7273.645613856            
        8287.034018745      216956.379335529        7276.066655234            
        8298.093395225      221428.702953878        7297.080520874            
        8309.167530883      222243.417563493        7301.318014000            
        8320.256445415      224506.992807807        7322.216956368            
        8331.360158544      219558.085335931        7316.030459859            
        8342.478690021      212660.449598480        7308.061887251            
        8353.612059619      221917.746998676        7353.134376534            
        8364.760287143      216139.483782757        7353.674815106            
        8375.923392419      220300.291574994        7375.478676161            
        8387.101395303      226178.381133131        7404.726707232            
        8398.294315677      220001.305981814        7388.453169627            
        8409.502173448      222557.276101437        7405.782925498            
        8420.724988551      219784.422033397        7393.468307809            
        8431.962780947      214542.824619723        7377.242520169            
        8443.215570624      217133.402421897        7383.286960515            
        8454.483377596      225564.293397899        7413.434580960            
        8465.766221905      225993.538107198        7420.072193040            
        8477.064123618      224763.256032622        7430.290246494            
        8488.377102831      225492.130821167        7444.686440513            
        8499.705179664      222087.881806662        7443.926093595            
        8511.048374266      229357.265488602        7483.855456358            
        8522.406706812      227510.702920532        7480.482492410            
        8533.780197505      215321.053042029        7433.303777317            
        8545.168866574      221675.244644021        7459.034882123            
        8556.572734275      233808.520970045        7508.568624017            
        8567.991820890      215156.081852455        7439.232886668            
        8579.426146731      213838.690767257        7438.273875946            
        8590.875732134      225601.903429565        7492.303232051            
        8602.340597465      230270.680270750        7507.835244184            
        8613.820763114      233334.917877301        7520.736706281            
        8625.316249501      228217.860227124        7504.120390683            
        8636.827077071      223337.218140866        7491.246137140            
        8648.353266299      229910.313003530        7519.775868066            
        8659.894837684      236203.703086466        7549.726790919            
        8671.451811756      232386.852602987        7548.436395867            
        8683.024209069      228735.427839321        7533.176540062            
        8694.612050207      221170.760105436        7501.070769475            
        8706.215355780      233715.508533575        7548.861067249            
        8717.834146425      228739.582569723        7523.486366361            
        8729.468442808      232202.393460026        7526.092503171            
        8741.118265623      222967.016575208        7484.173086006            
        8752.783635590      219417.579598432        7462.531093969            
        8764.464573457      249428.557036978        7574.159694906            
        8776.161099999      234975.924072682        7517.926449560            
        8787.873236022      244876.822227891        7558.778851295            
        8799.601002356      244323.577117241        7549.851508384            
        8811.344419861      244195.973475205        7557.024586512            
        8823.103509423      260220.911927392        7616.098475945            
        8834.878291958      261378.636738496        7616.042495031            
        8846.668788409      279596.844087081        7682.847877710            
        8858.475019746      286762.167829727        7713.794873150            
        8870.297006968      319007.254493754        7829.144998750            
        8882.134771103      322326.051180290        7840.400811596            
        8893.988333204      311609.781274644        7800.856556064            
        8905.857714356      306890.018895071        7778.707442267            
        8917.742935669      316462.851118689        7808.146401484            
        8929.644018282      306639.649375851        7765.504277172            
        8941.560983363      302891.483594925        7744.594306031            
        8953.493852109      283880.338202826        7670.360547181            
        8965.442645742      279538.284928563        7652.466324756            
        8977.407385515      256583.103989042        7569.818260539            
        8989.388092710      262956.147880975        7593.358349749            
        9001.384788634      248218.387608044        7536.864407025            
        9013.397494627      242128.874255992        7508.159022634            
        9025.426232053      237589.484139393        7488.060104859            
        9037.471022308      237357.983826071        7479.984670752            
        9049.531886815      239411.109065841        7484.364161868            
        9061.608847025      244417.004634063        7500.171402715            
        9073.701924418      240559.925920975        7482.197482792            
        9085.811140505      244884.780111682        7495.852837991            
        9097.936516822      240810.556283003        7471.574877663            
        9110.078074935      241864.752726475        7473.227575067            
        9122.235836441      236869.821779492        7460.282312783            
        9134.409822963      241830.056937256        7480.650377595            
        9146.600056155      243958.517434789        7492.853494065            
        9158.806557697      235941.848753585        7467.907948135            
        9171.029349301      247131.106161120        7513.167018680            
        9183.268452707      245096.894457639        7502.757343621            
        9195.523889683      245086.523010313        7505.633267912            
        9207.795682027      234187.685140373        7462.333546796            
        9220.083851566      244910.957290455        7494.935139953            
        9232.388420156      229767.252870910        7430.318067734            
        9244.709409682      244669.170142862        7471.126859131            
        9257.046842058      244696.785900491        7449.508962018            
        9269.400739229      248477.502341360        7448.640657811            
        9281.771123167      246626.771255224        7430.431880295            
        9294.158015874      234738.535843874        7372.093101808            
        9306.561439382      242871.255117328        7388.597543562            
        9318.981415752      234200.834039289        7352.626973991            
        9331.417967075      242979.577595542        7379.736444030            
        9343.871115470      251403.023992000        7411.472654352            
        9356.340883086      252678.021109791        7416.981684859            
        9368.827292104      252374.050188068        7415.457095094            
        9381.330364731      246930.539408320        7392.809267663            
        9393.850123205      246706.420681668        7386.897642540            
        9406.386589796      245367.627200226        7380.562092613            
        9418.939786799      242309.622169634        7372.258448764            
        9431.509736543      249512.935882170        7407.841245172            
        9444.096461385      244481.443844902        7396.573778196            
        9456.699983712      246152.282881162        7409.699788896            
        9469.320325941      243372.744563947        7407.253490001            
        9481.957510518      250484.934416758        7432.952274293            
        9494.611559921      247665.981196548        7418.290712583            
        9507.282496655      252844.238476919        7428.013755052            
        9519.970343259      260724.796348248        7448.565400166            
        9532.675122299      259174.961377488        7430.589102145            
        9545.396856372      253698.227900452        7399.862769097            
        9558.135568104      248721.439582871        7369.093678464            
        9570.891280155      251784.457023019        7373.598685517            
        9583.664015210      257884.864761255        7389.447197137            
        9596.453795988      245233.824619847        7326.546007370            
        9609.260645237      249270.182936842        7333.420675633            
        9622.084585736      249906.017663902        7321.471267444            
        9634.925640294      263814.023851476        7365.991751354            
        9647.783831749      255773.557594148        7328.677573929            
        9660.659182972      254612.087729057        7322.716665396            
        9673.551716864      258116.424032702        7333.758917015            
        9686.461456355      251954.467857956        7311.897170111            
        9699.388424407      252293.506712165        7306.292032283            
        9712.332644011      256758.918819430        7314.905714471            
        9725.294138192      252665.104534961        7299.153261033            
        9738.272930002      263897.936983377        7336.389554519            
        9751.269042526      260953.186239632        7327.369184842            
        9764.282498879      267472.624610986        7355.634748339            
        9777.313322206      252412.314407977        7312.746128340            
        9790.361535686      260164.469191717        7349.020116605            
        9803.427162526      260769.022207902        7363.814629783            
        9816.510225964      261127.100791392        7375.280819685            
        9829.610749271      263898.773669106        7395.220064774            
        9842.728755748      257233.652206322        7379.467617154            
        9855.864268725      264011.153663820        7410.235595303            
        9869.017311567      268899.771173185        7424.209285024            
        9882.187907668      268757.319271235        7417.153453290            
        9895.376080453      251091.983088349        7355.941830854            
        9908.581853379      246488.511708867        7341.228570934            
        9921.805249935      253269.343859097        7362.680530555            
        9935.046293639      266617.152387905        7418.591929329            
        9948.305008042      271031.936960240        7442.673017400            
        9961.581416727      256378.222009712        7382.694406697            
        9974.875543308      258839.110208662        7383.823850307            
        9988.187411429      259892.676537190        7371.716275569            
       10001.517044768      264531.128205692        7375.396872249            
       10014.864467032      263871.541464359        7360.754963077            
       10028.229701962      266430.365771454        7361.638110350            
       10041.612773330      261485.144353222        7334.404463386            
       10055.013704939      255066.318680000        7314.844975266            
       10068.432520624      251464.265105344        7292.081204652            
       10081.869244252      267276.579580960        7334.116790188            
       10095.323899722      255609.632219438        7280.288698171            
       10108.796510966      254557.377993932        7261.892512032            
       10122.287101944      259728.926775558        7248.917155303            
       10135.795696653      262243.966117884        7247.549805142            
       10149.322319119      257696.398865383        7219.322522002            
       10162.866993400      263301.153854470        7227.800660263            
       10176.429743588      268178.631646832        7228.702213160            
       10190.010593805      271742.468065473        7235.675242283            
       10203.609568208      271103.450622316        7207.178716453            
       10217.226690982      269991.678191746        7183.328506967            
       10230.861986348      265794.472379409        7146.795488131            
       10244.515478558      261696.680076252        7116.015588581            
       10258.187191897      276862.241498728        7147.525859817            
       10271.877150681      279718.816501865        7146.601913005            
       10285.585379259      265322.847421328        7085.961967382            
       10299.311902013      271194.058262211        7098.304103413            
       10313.056743358      276666.417231800        7107.157616629            
       10326.819927741      274477.734972344        7096.089980006            
       10340.601479640      268956.808253993        7075.049302562            
       10354.401423568      268897.205326777        7065.431310017            
       10368.219784071      268993.968984435        7052.758939387            
       10382.056585725      269947.661244373        7055.153665894            
       10395.911853141      270839.612604740        7054.298606137            
       10409.785610962      273791.260077718        7056.818066824            
       10423.677883866      276161.993716026        7058.951999668            
       10437.588696559      268962.015981086        7028.116276407            
       10451.518073786      269098.704239119        7014.856268788            
       10465.466040321      261457.697626394        6980.114253474            
       10479.432620971      271691.852981206        6996.450842829            
       10493.417840579      273897.628360111        6990.264406269            
       10507.421724019      271950.946817260        6974.084762631            
       10521.444296198      272262.913702658        6958.545635543            
       10535.485582057      271846.159829394        6936.313933629            
       10549.545606571      272649.695311613        6932.636811448            
       10563.624394747      268150.775077299        6903.986660843            
       10577.721971625      271662.088224451        6897.591912776            
       10591.838362281      278466.907745923        6913.619031159            
       10605.973591821      275120.041775117        6901.291501391            
       10620.127685387      281893.174318259        6907.737298994            
       10634.300668154      276351.772154584        6881.450852155            
       10648.492565330      268111.500384882        6860.214586889            
       10662.703402157      271097.321789074        6875.777815999            
       10676.933203912      271578.205383587        6880.290096438            
       10691.181995902      279692.675997437        6926.549573086            
       10705.449803472      281961.159599015        6950.831252156            
       10719.736651999      286230.229656775        6979.428965344            
       10734.042566894      281614.017727158        6984.143498534            
       10748.367573601      281178.348981975        7004.125742875            
       10762.711697599      297502.242999150        7083.852061344            
       10777.074964400      309827.521573083        7145.530464592            
       10791.457399553      333731.925358985        7254.144480004            
       10805.859028638      346885.332887606        7324.256696701            
       10820.279877269      384015.517478535        7473.730117702            
       10834.719971096      401788.422741714        7560.041283598            
       10849.179335803      421906.690055220        7651.743909275            
       10863.657997107      445595.467383723        7755.855800382            
       10878.155980760      454321.453747830        7813.046671470            
       10892.673312549      464640.644710579        7879.670034330            
       10907.210018295      472424.416751628        7933.936475983            
       10921.766123853      455011.122903330        7907.513836257            
       10936.341655112      428991.728454413        7850.345165346            
       10950.936637998      412880.161646847        7820.307652846            
       10965.551098468      393223.086987399        7784.358250976            
       10980.185062518      371354.266471896        7739.953456636            
       10994.838556174      353884.765076045        7701.374985688            
       11009.511605501      341912.481186185        7692.771565323            
       11024.204236595      335662.617818223        7697.700676517            
       11038.916475590      317470.513141500        7660.583994928            
       11053.648348653      312929.316788064        7670.069499119            
       11068.399881987      309344.744247114        7698.466505151            
       11083.171101828      297852.642541186        7688.231163682            
       11097.962034450      289759.717642130        7697.153435741            
       11112.772706160      292052.393823481        7734.947411292            
       11127.603143300      296693.221394435        7790.406849475            
       11142.453372248      288804.406282440        7804.641562885            
       11157.323419418      288856.133935859        7843.004419285            
       11172.213311256      284832.356724400        7880.903525487            
       11187.123074248      280704.654168678        7930.069455861            
       11202.052734911      286716.074644923        8012.477126678            
       11217.002319800      277684.138931675        8042.577542093            
       11231.971855505      278853.638610176        8105.569012873            
       11246.961368650      277134.968102462        8161.785269008            
       11261.970885897      271544.069369253        8183.034487593            
       11277.000433942      292968.557775420        8292.315821642            
       11292.050039516      287791.850267961        8299.352865457            
       11307.119729388      286803.270419194        8320.864924095            
       11322.209530360      295078.290575776        8357.246975347            
       11337.319469271      304636.224944700        8407.910983694            
       11352.449572997      318174.376753847        8483.041854584            
       11367.599868448      333620.105512014        8550.840445666            
       11382.770382571      358336.657171384        8657.159707799            
       11397.961142348      368666.899075974        8714.935620040            
       11413.172174798      372714.771243555        8742.392878903            
       11428.403506976      357539.837248952        8713.487858771            
       11443.655165973      359508.024944110        8753.619419761            
       11458.927178915      364679.589871813        8805.629010603            
       11474.219572966      358153.937628839        8816.137914711            
       11489.532375325      337709.041940578        8789.694234479            
       11504.865613227      330514.177601951        8789.889837076            
       11520.219313945      320938.697574253        8785.510564853            
       11535.593504788      315320.757931568        8793.524705252            
       11550.988213100      308733.666688357        8793.968474284            
       11566.403466262      297283.810845440        8775.876149631            
       11581.839291693      299307.264559042        8805.561172839            
       11597.295716846      303043.145022384        8841.843812227            
       11612.772769214      285105.990787410        8792.902883284            
       11628.270476324      293965.414506994        8846.903470504            
       11643.788865740      299541.987716771        8897.607519900            
       11659.327965064      299210.095356626        8926.392123939            
       11674.887801934      298939.463977471        8964.600842604            
       11690.468404025      300419.470305627        9008.327836918            
       11706.069799049      288941.021076203        9000.099541293            
       11721.692014755      300786.260700614        9082.334724248            
       11737.335078930      300388.008437941        9124.077162636            
       11752.999019396      300098.296691398        9159.516930848            
       11768.683864013      310454.565051742        9233.866123286            
       11784.389640679      298467.956552235        9228.955968131            
       11800.116377329      283878.753631606        9204.999296392            
       11815.864101935      305876.001684714        9315.680089998            
       11831.632842505      302437.107551941        9331.543982949            
       11847.422627087      290089.356211419        9313.339292952            
       11863.233483764      316498.237357812        9444.519476571            
       11879.065440658      312635.526415478        9457.171337538            
       11894.918525928      308899.520667016        9471.618347780            
       11910.792767771      298655.154805725        9459.973692700            
       11926.688194421      307823.145513157        9532.256920732            
       11942.604834151      304364.005544050        9551.489288522            
       11958.542715269      304220.807210081        9579.820058577            
       11974.501866123      299117.369388525        9596.015553030            
       11990.482315098      306830.471872396        9654.927901724            
       12006.484090619      304350.775444825        9679.250163012            
       12022.507221145      303267.678175666        9702.888873580            
       12038.551735176      313923.803710613        9772.163106798            
       12054.617661249      313630.350368473        9794.525547674            
       12070.705027940      318504.969388273        9838.069784930            
       12086.813863861      320595.926256625        9860.583089584            
       12102.944197664      322219.778556829        9882.404571667            
       12119.096058040      302231.793417756        9828.186908549            
       12135.269473715      305770.178608309        9859.491372632            
       12151.464473457      316499.210482796        9917.086674594            
       12167.681086070      325472.541855671        9975.086233840            
       12183.919340398      307374.633061320        9916.421617273            
       12200.179265322      319850.084419144        9971.745240502            
       12216.460889762      313399.176515662        9957.786486246            
       12232.764242677      310034.032585857        9968.474578840            
       12249.089353066      308557.606656480        9967.423887760            
       12265.436249963      328767.737649403       10063.056073699            
       12281.804962445      322437.136181495       10051.399296764            
       12298.195519624      331120.039507925       10094.332109425            
       12314.607950654      320255.498265994       10066.076732753            
       12331.042284726      309937.491353909       10038.389568302            
       12347.498551070      303244.932509431       10037.373108708            
       12363.976778956      309045.909405162       10078.309904201            
       12380.476997693      318594.640433192       10141.284291401            
       12396.999236628      322657.984411157       10177.960634119            
       12413.543525147      333218.329145856       10239.393190833            
       12430.109892678      328540.902750932       10228.450350732            
       12446.698368685      327648.218608793       10246.148939268            
       12463.308982673      322523.078504294       10252.862697985            
       12479.941764186      326062.427660450       10280.030944228            
       12496.596742807      327105.988407549       10311.417613878            
       12513.273948160      319813.200003696       10313.538019833            
       12529.973409906      332317.946012670       10383.611833275            
       12546.695157749      320088.199357824       10347.901603016            
       12563.439221429      323530.784243163       10383.513269237            
       12580.205630727      329488.391559810       10427.966898239            
       12596.994415466      336869.743922395       10476.744389099            
       12613.805605506      333121.643798200       10490.610298560            
       12630.639230748      326046.802935165       10486.405990466            
       12647.495321131      322131.536184757       10485.749658313            
       12664.373906638      321845.685682202       10504.956993499            
       12681.275017289      327410.031551542       10538.708675968            
       12698.198683144      333354.461129176       10583.701286326            
       12715.144934304      331725.965970123       10591.737121760            
       12732.113800910      337152.931816741       10634.050761507            
       12749.105313143      344774.326119341       10687.560372087            
       12766.119501225      331683.791572391       10655.290822872            
       12783.156395418      329357.507625082       10665.140778571            
       12800.216026024      334213.162141366       10702.724641013            
       12817.298423386      330304.875335971       10710.502810887            
       12834.403617886      343488.637644927       10786.359605302            
       12851.531639948      326398.412827442       10724.525465319            
       12868.682520037      334964.696958287       10755.560977880            
       12885.856288658      354133.945647552       10825.909960718            
       12903.052976355      335834.990307541       10742.673713760            
       12920.272613717      335501.109935391       10726.032066959            
       12937.515231369      335505.729990385       10717.405911513            
       12954.780859981      343186.358872022       10744.428641659            
       12972.069530260      344036.597226919       10747.203962709            
       12989.381272958      339836.142089762       10711.264704928            
       13006.716118864      339190.105223652       10994.573744106            
       13024.074098812      338632.085952115       11439.848563395            
