{"redRecord": "/SNS/SNAP/IPTS-30264/shared/SNAPRed/04bd2c53f6bf6754/lite/59061/None/ReductionRecord.json"
"attenuationMethod": null
"backgroundMethod": null}
# Total flight path 15.5806m, tth 85.3035deg, DIFC 5218.45
# Data for spectrum :0
BANK 1 863 863 SLOG       4123      13024  0.0013345 0 FXYE
        4125.524418352       82295.797735424       11948.686523006            
        4131.030094763      104910.543728393       11641.467830188            
        4136.543118719      104193.102404045       11239.103643636            
        4142.063500025       96979.207478839       11058.436170159            
        4147.591248499       89335.245697126       10880.326108992            
        4153.126373973       97489.062827052       10856.124487092            
        4158.668886292      112381.298775727       10906.026019533            
        4164.218795314      113131.138702103       10824.914558529            
        4169.776110911      113940.464376476       10754.939967945            
        4175.340842966      122675.393475185       10758.201669447            
        4180.913001378      112617.084458013       10585.432821285            
        4186.492596056      134574.487638422       10697.901944965            
        4192.079636926      126409.285796093       10547.008989324            
        4197.674133923      117677.775704787       10400.747040466            
        4203.276097000      110167.274215433       10254.215777520            
        4208.885536119      118761.707592750       10267.560884016            
        4214.502461258      109241.780823832       10119.647244541            
        4220.126882406      117177.916132059       10137.239568604            
        4225.758809568      110181.954937189       10051.808702977            
        4231.398252762      115366.039457927       10056.780033387            
        4237.045222016      107946.358541499        9969.539442353            
        4242.699727375      109133.035256726        9931.668275666            
        4248.361778897      116759.915569846        9918.332135623            
        4254.031386652      119983.812205114        9855.276579097            
        4259.708560723      117883.284312196        9779.932981655            
        4265.393311209      121802.834977616        9747.686084721            
        4271.085648221      129304.422484709        9739.228829300            
        4276.785581883      121545.073167711        9631.965085071            
        4282.493122333      137683.488615797        9694.504575280            
        4288.208279723      113800.262665647        9437.030365204            
        4293.931064218      130896.769046308        9497.279268524            
        4299.661485996      129444.026851160        9425.757537464            
        4305.399555250      120167.819453382        9304.101940273            
        4311.145282186      112274.267062503        9199.870802144            
        4316.898677022      124691.793097185        9268.261710762            
        4322.659749993      111686.519098417        9100.081952932            
        4328.428511345      103421.993100349        9006.327478043            
        4334.204971339      115506.927497665        9053.487753497            
        4339.989140248      106600.722032979        8933.299053215            
        4345.781028360      103147.797930222        8843.945640458            
        4351.580645978      115916.645651140        8883.768054389            
        4357.388003415      129353.090140138        8915.480707413            
        4363.203111003      115118.707845207        8740.021102377            
        4369.025979082      114402.775825573        8672.695400490            
        4374.856618011      120802.771409320        8657.237009486            
        4380.695038159      120666.442675385        8602.266680401            
        4386.541249911      121729.091781573        8571.282628225            
        4392.395263665      116684.121688625        8495.018439564            
        4398.257089834      122743.880162490        8500.759853014            
        4404.126738842      120403.542651838        8444.433038546            
        4410.004221131      110613.843659578        8344.416238537            
        4415.889547153      118855.027594776        8345.343962834            
        4421.782727377      115492.121314292        8274.602932801            
        4427.683772285      111140.046200498        8210.642843735            
        4433.592692371      115325.120924435        8201.169749430            
        4439.509498147      121809.592370715        8200.659287395            
        4445.434200135      116754.731487045        8125.938821859            
        4451.366808873      124990.689307076        8140.980725674            
        4457.307334914      121809.352714128        8080.463511186            
        4463.255788823      122778.395660255        8040.692451962            
        4469.212181181      118809.977732896        7975.780878309            
        4475.176522580      122718.872662731        7952.818755825            
        4481.148823631      126154.050729870        7939.791488347            
        4487.129094955      131157.790735955        7905.575069569            
        4493.117347189      121456.847154357        7818.251909292            
        4499.113590984      131480.561951028        7846.834984285            
        4505.117837004      125688.277659034        7777.220134474            
        4511.130095930      128018.091152118        7749.130471314            
        4517.150378454      129389.709583691        7744.435863867            
        4523.178695284      128884.958139392        7685.650463341            
        4529.215057144      126810.961494235        7623.092353687            
        4535.259474768      130648.080211199        7617.676602131            
        4541.311958908      123634.279343908        7543.518070611            
        4547.372520328      125546.497687629        7529.445814464            
        4553.441169809      130287.124782169        7548.872769412            
        4559.517918144      120813.229485012        7473.228192752            
        4565.602776142      122874.098658704        7477.778314155            
        4571.695754624      106869.794488075        7376.986395709            
        4577.796864429      104769.908540805        7360.651897338            
        4583.906116407      112011.855345771        7392.682177897            
        4590.023521425      122107.592880576        7444.052521029            
        4596.149090363      114685.807634261        7369.349346041            
        4602.282834116      116003.883798564        7337.730430805            
        4608.424763595      126464.153479365        7362.608865894            
        4614.574889723      114350.742290809        7262.063767211            
        4620.733223438      113044.809278838        7221.814969174            
        4626.899775695      127862.901178702        7281.235546507            
        4633.074557461      118303.768108624        7198.307307850            
        4639.257579719      109979.379191097        7126.511806154            
        4645.448853466      132728.031081826        7230.140927138            
        4651.648389714      133007.882142730        7222.196042849            
        4657.856199490      137323.686689317        7228.488792047            
        4664.072293835      139345.373470133        7226.561192562            
        4670.296683805      132250.144226806        7163.855464134            
        4676.529380471      140635.094565087        7198.337222105            
        4682.770394918      127755.970926171        7100.790833865            
        4689.019738248      137831.555350439        7145.982545337            
        4695.277421574      136991.437949653        7124.851737686            
        4701.543456028      132465.371235209        7082.750588192            
        4707.817852754      139766.408419445        7103.808280320            
        4714.100622912      132210.761881220        7046.610132050            
        4720.391777677      128686.547235801        7016.687797828            
        4726.691328238      124715.937649386        6979.368159127            
        4732.999285800      127251.472667764        6984.935161780            
        4739.315661582      133711.675307011        7025.689970507            
        4745.640466819      121906.616280699        6959.968550481            
        4751.973712759      134939.885388526        7029.006787591            
        4758.315410669      136678.416634971        7043.544526332            
        4764.665571826      128771.770369939        6995.775892442            
        4771.024207526      139403.615261791        7035.686795393            
        4777.391329079      131529.375405734        6969.214379670            
        4783.766947808      124028.592912737        6908.709855437            
        4790.151075054      126129.976883853        6897.913436916            
        4796.543722172      124558.621491240        6883.812393947            
        4802.944900531      125613.201197692        6889.180344270            
        4809.354621518      141743.410136489        6975.704111553            
        4815.772896532      126722.638928631        6890.746980065            
        4822.199736990      124862.204717087        6877.745964308            
        4828.635154321      131600.746448430        6905.391041846            
        4835.079159973      117892.186753896        6821.388240495            
        4841.531765407      127047.520692522        6870.090533731            
        4847.992982100      127589.230481189        6870.847923831            
        4854.462821543      128154.894950470        6870.062933087            
        4860.941295244      121998.774772828        6826.800933082            
        4867.428414726      126183.041414110        6840.549032549            
        4873.924191527      128438.687244253        6841.019452480            
        4880.428637200      129290.168769641        6837.383594681            
        4886.941763315      124360.459798573        6800.284316306            
        4893.463581455      132341.032027295        6835.206766028            
        4899.994103222      132328.374628615        6835.799958564            
        4906.533340229      145228.700967323        6903.768417500            
        4913.081304108      135601.763031894        6854.079141832            
        4919.638006506      127137.506683112        6819.212783212            
        4926.203459083      136986.955933171        6881.332841951            
        4932.777673518      141924.978497063        6917.469713998            
        4939.360661504      132413.658024250        6883.572389680            
        4945.952434749      138796.451299245        6927.960774991            
        4952.553004978      134759.347861256        6924.257609311            
        4959.162383930      131565.356570954        6914.650585109            
        4965.780583361      145160.622349623        6994.694596084            
        4972.407615042      133846.432864120        6948.961220422            
        4979.043490761      130746.273146026        6939.866758195            
        4985.688222320      133329.476447740        6952.013578249            
        4992.341821538      133055.249973528        6957.063356336            
        4999.004300248      138719.932344845        6997.704958937            
        5005.675670301      134132.099730233        6978.493462333            
        5012.355943562      139891.552997406        7018.855660706            
        5019.045131914      129604.056948386        6972.717565624            
        5025.743247254      127006.835741997        6973.478754951            
        5032.450301496      129963.878830370        7000.686515838            
        5039.166306567      132157.189489634        7025.703374141            
        5045.891274415      118909.846859417        6969.524007799            
        5052.625217000      127888.258829736        7036.167373837            
        5059.368146299      140128.782616559        7126.462799360            
        5066.120074305      131523.319881708        7112.381555522            
        5072.881013028      129146.188846060        7120.388245333            
        5079.650974492      140694.995220036        7209.033265017            
        5086.429970739      136828.835809864        7207.977337911            
        5093.218013827      144105.097194318        7259.383865369            
        5100.015115827      135051.161732465        7213.027990705            
        5106.821288831      136606.084410638        7236.859191215            
        5113.636544943      139039.763282880        7259.141074490            
        5120.460896286      133976.723488769        7259.738873676            
        5127.294354997      134761.885433106        7296.346134860            
        5134.136933230      144471.485607566        7366.956400630            
        5140.988643156      147458.068876432        7400.133704006            
        5147.849496961      135691.433071062        7360.459896716            
        5154.719506849      144199.578251824        7407.683177751            
        5161.598685038      139120.968985906        7388.722102004            
        5168.487043764      135827.647659212        7384.232871710            
        5175.384595279      154892.651690648        7490.509364501            
        5182.291351850      140271.118223921        7413.408034038            
        5189.207325763      136527.639819228        7397.524463259            
        5196.132529318      151513.904310865        7487.368048598            
        5203.066974833      148580.007117646        7483.849880617            
        5210.010674641      144053.148203244        7480.037480154            
        5216.963641092      148313.976748444        7517.163967432            
        5223.925886554      158823.125361789        7602.350484957            
        5230.897423409      157336.998681076        7605.779921827            
        5237.878264058      151153.394958088        7586.236335411            
        5244.868420916      154205.544755166        7635.229438772            
        5251.867906416      146694.257493708        7627.403554944            
        5258.876733008      145225.183296476        7644.319678072            
        5265.894913158      146782.568300940        7678.099488687            
        5272.922459348      131145.207916211        7618.911254036            
        5279.959384078      131048.388211187        7635.306522666            
        5287.005699865      143402.752387607        7713.486082392            
        5294.061419239      151088.449352040        7769.774993000            
        5301.126554752      148515.688092245        7767.972219509            
        5308.201118970      152509.401198414        7795.303292174            
        5315.285124474      153876.748890800        7796.393549284            
        5322.378583866      145720.403018952        7756.562603405            
        5329.481509761      147416.900810063        7756.252480337            
        5336.593914794      149417.451983732        7756.624389501            
        5343.715811614      148848.096984461        7750.229232891            
        5350.847212888      136580.516606147        7680.286020442            
        5357.988131301      139841.005649268        7695.253626721            
        5365.138579553      141648.838503770        7702.331276343            
        5372.298570364      152844.873291216        7761.649192502            
        5379.468116466      145217.605014361        7717.903271480            
        5386.647230613      144540.742088161        7714.986652124            
        5393.835925574      147597.845923435        7720.585475298            
        5401.034214134      148430.571122444        7735.427598509            
        5408.242109096      137798.128523932        7682.226793970            
        5415.459623280      159999.807036321        7799.167277832            
        5422.686769525      153038.268589577        7759.349147914            
        5429.923560683      137832.979440873        7680.091491648            
        5437.170009627      159297.675592510        7802.938606968            
        5444.426129246      154588.735113824        7791.068345731            
        5451.691932444      147530.259293278        7771.218620324            
        5458.967432146      145426.777709665        7783.185416869            
        5466.252641292      152331.926795765        7838.334039775            
        5473.547572839      157602.860702853        7888.196177022            
        5480.852239762      139287.050775616        7799.172291985            
        5488.166655054      147890.215869302        7868.120946614            
        5495.490831723      152613.793871524        7914.208694185            
        5502.824782798      145946.311697850        7896.103582567            
        5510.168521323      150207.127765187        7939.365029045            
        5517.522060358      148059.881862029        7947.446055810            
        5524.885412984      152388.875098656        7998.155010818            
        5532.258592296      148777.008743363        8012.350434929            
        5539.641611410      157686.904040823        8100.766821457            
        5547.034483456      147169.797057058        8072.695171612            
        5554.437221585      147361.206203865        8109.827435818            
        5561.849838961      159390.719731820        8211.121820628            
        5569.272348770      163300.726226132        8253.448001292            
        5576.704764214      156955.211789108        8239.464028917            
        5584.147098512      169633.515037824        8356.548969132            
        5591.599364901      149549.981971181        8285.633291500            
        5599.061576635      146158.180891519        8309.911090426            
        5606.533746988      150243.910893176        8367.775918078            
        5614.015889250      152991.569920253        8446.769004111            
        5621.508016728      144672.677920494        8453.639844322            
        5629.010142748      165177.252224963        8602.933245818            
        5636.522280654      158878.892075922        8608.686027244            
        5644.044443806      159606.872247806        8655.368590434            
        5651.576645585      151659.771274121        8637.345126851            
        5659.118899386      151315.205800599        8641.686664308            
        5666.671218625      164757.210435266        8734.982622956            
        5674.233616734      147529.649799747        8651.804262636            
        5681.806107164      144023.459198554        8649.276282922            
        5689.388703384      148242.524516652        8672.894524265            
        5696.981418880      159535.206394000        8751.181302396            
        5704.584267157      152051.629266507        8725.119381901            
        5712.197261737      154601.060313931        8739.488301209            
        5719.820416162      152568.578561176        8717.291400311            
        5727.453743989      156578.112505912        8720.981004246            
        5735.097258795      154381.930852713        8692.328607971            
        5742.750974177      143748.368897213        8613.061450658            
        5750.414903745      141876.359935798        8588.433353558            
        5758.089061133      151081.520342965        8629.100758085            
        5765.773459989      157932.950013244        8663.492135118            
        5773.468113980      150945.079536020        8614.190808984            
        5781.173036794      156732.740227564        8630.215273433            
        5788.888242133      163586.058964298        8638.941844310            
        5796.613743721      153900.665856149        8550.287102309            
        5804.349555298      165183.336840081        8580.137204909            
        5812.095690623      162612.528536495        8518.320916149            
        5819.852163474      152909.239721095        8430.519424984            
        5827.618987646      160849.008153993        8447.628049547            
        5835.396176954      154955.917364239        8388.305188104            
        5843.183745230      156430.183320529        8358.796433058            
        5850.981706326      155041.867755358        8321.248477243            
        5858.790074112      162583.336092034        8333.827486098            
        5866.608862474      162663.834085063        8289.136165982            
        5874.438085321      159050.136918453        8230.465235168            
        5882.277756577      156715.440176530        8181.768469278            
        5890.127890186      170952.376523186        8210.127716512            
        5897.988500110      170375.919666415        8154.300479351            
        5905.859600331      170216.854246117        8106.563127264            
        5913.741204848      153902.042272993        7986.184046122            
        5921.633327680      157603.323499225        7961.012072368            
        5929.535982864      161655.564593176        7944.908404112            
        5937.449184456      162494.746469258        7916.705962619            
        5945.372946529      163231.162648030        7887.772707434            
        5953.307283178      163284.572947467        7848.104387731            
        5961.252208516      164371.513649157        7821.004575240            
        5969.207736672      155668.090965605        7732.650625926            
        5977.173881796      169027.156524690        7749.056800878            
        5985.150658058      159274.411859116        7648.304272508            
        5993.138079646      161807.072784349        7608.412312008            
        6001.136160765      161090.621458413        7554.966706898            
        6009.144915641      178335.843153518        7609.583178951            
        6017.164358519      184142.113558774        7596.928117157            
        6025.194503663      182691.109123622        7548.169192943            
        6033.235365355      196182.365811336        7564.478607366            
        6041.286957897      205029.274808314        7563.426834239            
        6049.349295609      205170.759938115        7506.963155294            
        6057.422392831      210180.600035489        7483.186015924            
        6065.506263923      214442.129029373        7461.082787613            
        6073.600923262      221062.406110001        7446.480776609            
        6081.706385246      228582.640772475        7428.903312216            
        6089.822664291      214946.458105297        7312.903075224            
        6097.949774834      214077.207133593        7265.545903036            
        6106.087731328      203121.239391912        7168.293820939            
        6114.236548250      205542.396929194        7140.719403510            
        6122.396240091      197491.836293125        7073.243779763            
        6130.566821366      182212.379294882        6968.059687165            
        6138.748306607      179484.284124977        6927.357689875            
        6146.940710365      177883.468850939        6889.107369369            
        6155.144047212      175959.799545759        6858.569910880            
        6163.358331737      169530.333826118        6807.144276211            
        6171.583578553      167325.631130920        6787.952297211            
        6179.819802287      171790.958702406        6793.488876938            
        6188.067017589      169541.635968130        6759.700036859            
        6196.325239129      169381.730050511        6743.785330800            
        6204.594481593      170290.951769123        6722.201563677            
        6212.874759690      177813.475702336        6739.194760685            
        6221.166088148      168251.757015348        6674.544449906            
        6229.468481713      168787.502283415        6660.382358122            
        6237.781955153      172399.396560963        6656.351216949            
        6246.106523254      168374.092160490        6617.192181478            
        6254.442200821      171727.798477894        6604.607713547            
        6262.789002682      165035.433111585        6548.215440267            
        6271.146943683      169228.581261472        6547.915524444            
        6279.516038687      169778.994264152        6526.746230748            
        6287.896302582      165851.399672104        6496.122571194            
        6296.287750273      165358.220296099        6475.109019476            
        6304.690396684      167973.009925213        6472.358663539            
        6313.104256761      160230.531968115        6416.393297736            
        6321.529345468      168381.024949557        6426.638577459            
        6329.965677792      170963.505315338        6410.290626312            
        6338.413268737      164728.725434910        6361.208556041            
        6346.872133327      178780.894675724        6402.896912804            
        6355.342286609      178752.138249321        6382.156311092            
        6363.823743648      166994.601187539        6322.201989137            
        6372.316519528      165214.495497821        6311.703399433            
        6380.820629355      173893.824182006        6353.609353810            
        6389.336088256      176355.413750851        6365.422734031            
        6397.862911374      173363.230537461        6356.823135919            
        6406.401113877      180167.030249084        6383.340431200            
        6414.950710952      175000.758061230        6359.925509938            
        6423.511717803      180764.048987854        6380.706334008            
        6432.084149658      185614.977937147        6401.647524693            
        6440.668021765      174073.974014221        6358.927161541            
        6449.263349391      176822.588813719        6381.392132086            
        6457.870147823      184953.469140100        6430.335325669            
        6466.488432369      181251.354002279        6429.078591374            
        6475.118218360      181341.317635246        6448.070221846            
        6483.759521143      176230.846933516        6443.906718908            
        6492.412356088      175452.907064088        6453.861607039            
        6501.076738585      174628.161627409        6457.545779788            
        6509.752684046      181155.896989349        6493.953142601            
        6518.440207901      183225.318343403        6509.079641288            
        6527.139325602      185752.211696327        6522.248367921            
        6535.850052621      181929.740676550        6511.717018662            
        6544.572404452      173463.490647726        6485.723231093            
        6553.306396609      175300.508550639        6508.231118721            
        6562.052044625      178621.070322670        6542.375878227            
        6570.809364057      181810.092641051        6563.574208371            
        6579.578370479      174467.192556188        6546.041830464            
        6588.359079490      173211.640897075        6556.291357417            
        6597.151506705      171435.605682443        6560.350793707            
        6605.955667765      174753.942576182        6586.956675752            
        6614.771578328      177074.094160092        6618.185154813            
        6623.599254074      181875.062209884        6663.351635078            
        6632.438710704      184558.935030024        6691.900582797            
        6641.289963941      176475.334349181        6676.644664312            
        6650.153029527      175781.743325791        6687.941274975            
        6659.027923226      180934.615633477        6726.419246443            
        6667.914660825      173850.603295945        6702.329452018            
        6676.813258128      181973.975226951        6749.303760524            
        6685.723730963      176107.031344461        6739.222807542            
        6694.646095178      182446.880936619        6785.987141993            
        6703.580366644      185035.249083323        6820.485827040            
        6712.526561250      178020.586861097        6805.350771935            
        6721.484694908      182043.995175460        6840.956146234            
        6730.454783552      182614.695390345        6854.630893118            
        6739.436843136      180141.960502812        6859.296282263            
        6748.430889636      183745.346740060        6891.673892686            
        6757.436939049      185720.299901416        6920.308080800            
        6766.455007392      180812.655663098        6926.316041917            
        6775.485110707      190611.379613635        6996.173980822            
        6784.527265054      189517.116149803        7017.298447534            
        6793.581486515      187750.455095863        7034.080615266            
        6802.647791195      193577.339846872        7088.474312264            
        6811.726195219      183793.364104480        7065.631097653            
        6820.816714734      186862.302972575        7102.609476187            
        6829.919365909      187641.042546661        7122.265664069            
        6839.034164934      194367.028260134        7177.501803069            
        6848.161128021      189580.024918311        7170.068758529            
        6857.300271403      194183.090136329        7196.782764624            
        6866.451611335      198822.152209772        7224.966016264            
        6875.615164095      183152.080213160        7146.449835510            
        6884.790945980      186838.139645644        7159.155894628            
        6893.978973311      184884.927837600        7154.678752981            
        6903.179262430      178515.793235079        7133.201049728            
        6912.391829700      192392.572132567        7207.242297975            
        6921.616691508      187829.257954235        7209.179806402            
        6930.853864261      188948.215082095        7236.978226509            
        6940.103364388      187738.503249597        7243.693330764            
        6949.365208342      191081.265199470        7269.707549737            
        6958.639412594      185807.066436264        7260.177075889            
        6967.925993640      184463.480806002        7256.160336117            
        6977.224967999      191304.796765988        7295.476487012            
        6986.536352208      187501.933466196        7280.624898577            
        6995.860162830      186662.031468063        7295.357443948            
        7005.196416448      197888.288133827        7382.536553833            
        7014.545129668      192314.740665225        7376.601714820            
        7023.906319118      190948.395866940        7410.507679870            
        7033.280001447      192843.636478326        7461.065563688            
        7042.666193328      195734.298281792        7510.340040186            
        7052.064911455      196171.505998660        7547.621014560            
        7061.476172546      190056.631217492        7559.794921261            
        7070.899993339      186353.148002043        7576.253456987            
        7080.336390595      190443.616392259        7632.655072483            
        7089.785381099      189095.715444201        7667.043910580            
        7099.246981656      193099.374472145        7720.716564753            
        7108.721209096      190530.338915324        7743.400186058            
        7118.208080269      187791.311712934        7765.576975036            
        7127.707612048      191723.636071706        7818.860376640            
        7137.219821331      184237.144807562        7823.491844592            
        7146.744725036      183329.360772258        7857.220334811            
        7156.282340103      188260.741918064        7910.929339825            
        7165.832683497      196199.646635131        7979.475530555            
        7175.395772204      198016.500841190        8032.481526661            
        7184.971623233      180200.354642551        7969.372647496            
        7194.560253616      199413.141393417        8101.226323608            
        7204.161680408      204623.431122891        8171.510979009            
        7213.775920685      195899.988139917        8160.457733529            
        7223.402991549      195521.988467948        8193.674159579            
        7233.042910122      189281.435262720        8199.266404426            
        7242.695693549      198575.570975386        8294.480370615            
        7252.361359000      203534.239528576        8366.729040930            
        7262.039923665      196850.112379805        8370.973270685            
        7271.731404760      204029.917983374        8450.067289952            
        7281.435819523      205630.162875458        8482.623962418            
        7291.153185212      206864.432545818        8538.546654294            
        7300.883519113      202446.491883586        8549.216352829            
        7310.626838531      220075.435152175        8691.439321858            
        7320.383160796      205063.407532337        8661.126525322            
        7330.152503262      224117.293749668        8803.380783340            
        7339.934883303      244966.507433851        8940.380064174            
        7349.730318320      235912.090165448        8915.967295574            
        7359.538825734      233501.731324322        8946.054254772            
        7369.360422992      247351.220775435        9049.526354662            
        7379.195127562      255793.481787568        9142.104581916            
        7389.042956936      276646.348321303        9307.750980863            
        7398.903928630      267668.134038632        9315.260037013            
        7408.778060183      275069.862614671        9385.979254061            
        7418.665369157      281748.337440682        9460.999454231            
        7428.565873138      273516.084291955        9443.708870743            
        7438.479589736      279615.601512598        9498.955873175            
        7448.406536582      282654.482879625        9542.098094693            
        7458.346731334      257927.776375235        9431.027315949            
        7468.300191672      278610.041966651        9553.735296437            
        7478.266935298      257513.049177543        9460.417581264            
        7488.246979939      255929.779253418        9474.147761890            
        7498.240343348      258603.266461863        9501.982537897            
        7508.247043297      243066.661150487        9444.790567285            
        7518.267097585      251879.165668074        9503.547578205            
        7528.300524034      242930.301238996        9478.316790417            
        7538.347340490      232446.715946202        9451.168194706            
        7548.407564821      227695.389407636        9457.454633527            
        7558.481214923      225245.290560190        9480.411697223            
        7568.568308711      208068.472566381        9454.023448326            
        7578.668864127      206214.679295735        9497.587015043            
        7588.782899135      205137.990638217        9524.966072173            
        7598.910431726      208649.901818374        9575.565620328            
        7609.051479912      216035.265738127        9636.280348731            
        7619.206061730      195380.011339199        9542.627696079            
        7629.374195241      207141.526693140        9631.578002359            
        7639.555898531      208276.383033227        9670.260429497            
        7649.751189708      208552.778330364        9719.713277061            
        7659.960086908      217195.180529601        9793.668315435            
        7670.182608286      214668.114566826        9814.622154622            
        7680.418772026      196764.375539303        9747.858566689            
        7690.668596334      210226.300472192        9828.750094700            
        7700.932099440      202159.385015029        9784.783455891            
        7711.209299598      206952.508143415        9828.619906327            
        7721.500215090      211164.259610693        9843.199773088            
        7731.804864217      217839.962305841        9865.694304584            
        7742.123265308      196103.344793073        9741.935492615            
        7752.455436716      197993.820327090        9745.911182269            
        7762.801396817      213194.905626384        9816.425887249            
        7773.161164014      208886.154241582        9790.803027286            
        7783.534756732      211012.669556229        9796.480117126            
        7793.922193422      225161.932424499        9857.098232516            
        7804.323492560      216454.952522480        9803.462492741            
        7814.738672645      216767.883142435        9757.009227417            
        7825.167752202      224048.958230647        9747.747238515            
        7835.610749780      203073.152746344        9584.653136990            
        7846.067683954      216723.186325869        9607.445059191            
        7856.538573322      212096.302061902        9498.291522730            
        7867.023436509      214720.248286811        9446.775891867            
        7877.522292163      208793.337152980        9342.428378278            
        7888.035158957      200587.503359234        9229.133576890            
        7898.562055590      207592.696834221        9189.745432437            
        7909.103000785      215453.618203741        9153.489819274            
        7919.658013291      213266.351550053        9085.796034635            
        7930.227111881      213348.346737857        9014.894878499            
        7940.810315353      216266.331013183        8950.419287909            
        7951.407642531      212839.129792885        8862.543750573            
        7962.019112264      210025.226810466        8782.049806408            
        7972.644743425      210566.831112122        8721.137275309            
        7983.284554913      207814.243352207        8633.077062032            
        7993.938565653      209006.945335558        8568.535379826            
        8004.606794594      224881.630518020        8567.240093677            
        8015.289260711      214968.533962931        8443.348590978            
        8025.985983004      214657.835392434        8362.120879771            
        8036.696980498      208428.719762432        8256.355384997            
        8047.422272244      211392.763752181        8207.732027492            
        8058.161877319      223682.524886662        8192.088810202            
        8068.915814823      222606.822439881        8121.034309920            
        8079.684103885      208029.510669281        7996.027969409            
        8090.466763657      207001.440610225        7938.774142889            
        8101.263813318      214723.594428858        7922.587174188            
        8112.075272070      219442.466033197        7892.262484766            
        8122.901159144      231872.661317577        7909.340789485            
        8133.741493795      223439.804035350        7825.419977420            
        8144.596295304      219412.639553277        7775.538941403            
        8155.465582977      213027.500747396        7712.019593448            
        8166.349376147      218279.544521113        7700.250642697            
        8177.247694172      217369.402760620        7671.504940263            
        8188.160556435      210756.770769387        7621.136550597            
        8199.087982347      215287.512745801        7618.084576328            
        8210.029991344      228632.340016584        7650.171263492            
        8220.986602886      226501.686534071        7621.614037646            
        8231.957836463      230365.033747492        7619.085722316            
        8242.943711587      218633.114304024        7552.769003143            
        8253.944247799      226225.976108938        7561.563322621            
        8264.959464663      227018.865479298        7552.304932005            
        8275.989381773      218786.555729199        7515.681084407            
        8287.034018745      220682.556261567        7514.639339026            
        8298.093395225      221498.143989195        7521.063105300            
        8309.167530883      223564.307887543        7530.631476493            
        8320.256445415      223579.290527788        7542.639264399            
        8331.360158544      223998.970990312        7558.516395245            
        8342.478690021      224459.817404723        7580.688684818            
        8353.612059619      226410.532395647        7596.970103404            
        8364.760287143      220224.121326857        7595.613855437            
        8375.923392419      218057.232544031        7591.956007418            
        8387.101395303      232306.737675794        7657.454208504            
        8398.294315677      217684.750055958        7605.048177685            
        8409.502173448      220750.672754403        7625.001873973            
        8420.724988551      223483.335358124        7635.158957511            
        8431.962780947      229517.405023834        7665.267360183            
        8443.215570624      226875.626055141        7649.804820420            
        8454.483377596      246583.280209318        7728.013037282            
        8465.766221905      231263.979331466        7669.457523035            
        8477.064123618      233583.119037359        7694.455930482            
        8488.377102831      235766.317823097        7715.185970703            
        8499.705179664      240008.476186544        7745.723830526            
        8511.048374266      237778.723411806        7747.720278497            
        8522.406706812      243290.490335152        7774.508937468            
        8533.780197505      265127.939232869        7865.317013054            
        8545.168866574      273047.331287451        7897.920925382            
        8556.572734275      292574.708651506        7978.474950220            
        8567.991820890      317500.829878257        8083.183457985            
        8579.426146731      316043.516982464        8081.667790224            
        8590.875732134      328906.199569268        8140.140449338            
        8602.340597465      343068.608713033        8193.604703175            
        8613.820763114      325672.117889677        8125.602523044            
        8625.316249501      312310.210458837        8075.814036785            
        8636.827077071      295757.896209688        8015.892492515            
        8648.353266299      302860.296309529        8046.803970956            
        8659.894837684      273392.976604982        7932.949324150            
        8671.451811756      259859.458552673        7891.699798501            
        8683.024209069      256968.241953905        7879.050446555            
        8694.612050207      251192.865401563        7853.403879677            
        8706.215355780      251784.615502364        7854.074318182            
        8717.834146425      244088.849990028        7816.660179479            
        8729.468442808      243599.111719214        7803.430384317            
        8741.118265623      226643.506183644        7728.197146104            
        8752.783635590      242247.324321626        7784.474194400            
        8764.464573457      234963.071570745        7748.080259610            
        8776.161099999      233631.584245042        7743.318101744            
        8787.873236022      244778.484412473        7790.908623727            
        8799.601002356      239561.225322520        7762.427023482            
        8811.344419861      228810.164046174        7726.299388091            
        8823.103509423      232074.585110334        7736.250823555            
        8834.878291958      242314.112572209        7773.212064855            
        8846.668788409      244939.917300299        7780.327676219            
        8858.475019746      224523.497514450        7700.876406594            
        8870.297006968      237535.897149182        7746.001699377            
        8882.134771103      243844.595827858        7770.331732625            
        8893.988333204      235304.137330983        7736.996339984            
        8905.857714356      241429.500801731        7757.566742041            
        8917.742935669      232667.402141062        7714.413494230            
        8929.644018282      238162.686388945        7731.619290755            
        8941.560983363      246981.210439029        7760.686644290            
        8953.493852109      241184.417920460        7735.850951994            
        8965.442645742      245645.902945622        7752.798036451            
        8977.407385515      238472.622842067        7729.728643222            
        8989.388092710      238337.992302597        7728.238489613            
        9001.384788634      236458.592197066        7720.767679928            
        9013.397494627      236914.599677408        7717.277547534            
        9025.426232053      241446.956733138        7732.780936209            
        9037.471022308      251781.184552972        7766.863184637            
        9049.531886815      251940.646614304        7763.760523406            
        9061.608847025      250745.208203739        7755.488361087            
        9073.701924418      232355.257755171        7678.723737107            
        9085.811140505      230481.409656148        7668.121567516            
        9097.936516822      250810.969688513        7739.476763470            
        9110.078074935      246919.755980165        7721.270071600            
        9122.235836441      244875.671338379        7718.557406640            
        9134.409822963      251146.710493209        7743.993492387            
        9146.600056155      251305.995995276        7748.127792548            
        9158.806557697      245137.958510194        7728.634300901            
        9171.029349301      249097.570146422        7746.833347905            
        9183.268452707      238355.887296184        7701.621981856            
        9195.523889683      242182.882980953        7719.550232850            
        9207.795682027      249414.361841660        7744.646409567            
        9220.083851566      256709.097741175        7765.382001175            
        9232.388420156      250257.745603819        7732.324374458            
        9244.709409682      245895.286286206        7700.998115905            
        9257.046842058      251341.373399070        7700.280674590            
        9269.400739229      239899.845051360        7641.486671996            
        9281.771123167      248561.073214961        7663.826477735            
        9294.158015874      250122.377283664        7655.772349717            
        9306.561439382      255883.300641264        7664.101178559            
        9318.981415752      252278.602308956        7646.538411917            
        9331.417967075      246062.557142340        7617.169450710            
        9343.871115470      252141.067378420        7641.313170183            
        9356.340883086      255651.864373478        7655.668714038            
        9368.827292104      252675.483104263        7643.969102426            
        9381.330364731      256008.270898851        7654.124671541            
        9393.850123205      254906.974503805        7644.593444354            
        9406.386589796      256267.773230723        7648.451007791            
        9418.939786799      252375.762421221        7636.564423433            
        9431.509736543      257720.757230210        7666.168656980            
        9444.096461385      260827.150950274        7685.627386979            
        9456.699983712      263173.599237362        7701.678915373            
        9469.320325941      265555.908033623        7718.555082204            
        9481.957510518      256154.851837463        7682.113183604            
        9494.611559921      254607.158595852        7671.757797906            
        9507.282496655      254025.689655726        7659.987836781            
        9519.970343259      258098.774977458        7667.011045007            
        9532.675122299      260394.154692322        7663.232370053            
        9545.396856372      253090.482873538        7624.458648723            
        9558.135568104      256121.751558313        7623.141443745            
        9570.891280155      262721.857478834        7641.221539927            
        9583.664015210      248646.776387252        7581.015905411            
        9596.453795988      255503.673664263        7589.974181486            
        9609.260645237      258354.221645600        7592.457642755            
        9622.084585736      258718.555618106        7579.112419713            
        9634.925640294      250128.673856589        7540.433377386            
        9647.783831749      252695.598222371        7541.937125518            
        9660.659182972      267513.400199119        7596.038012213            
        9673.551716864      257616.305593282        7556.969141743            
        9686.461456355      260044.787778088        7566.559072091            
        9699.388424407      263497.104536982        7572.529900083            
        9712.332644011      263760.455152081        7565.755760077            
        9725.294138192      258632.104403870        7545.442343706            
        9738.272930002      261646.056746249        7553.546128100            
        9751.269042526      264286.467920320        7565.076202292            
        9764.282498879      265926.247347579        7576.228250161            
        9777.313322206      267982.377965475        7595.600754400            
        9790.361535686      269567.971077288        7609.949991786            
        9803.427162526      267106.072554096        7613.468625865            
        9816.510225964      262777.996620501        7607.698299452            
        9829.610749271      267663.575652028        7636.116608754            
        9842.728755748      261645.657596264        7622.021208501            
        9855.864268725      258162.507672882        7615.850856463            
        9869.017311567      262627.862641889        7628.962868659            
        9882.187907668      269142.557148347        7646.592599433            
        9895.376080453      268797.421709799        7647.507028938            
        9908.581853379      260183.966293537        7617.140090828            
        9921.805249935      275080.226559214        7669.408264085            
        9935.046293639      272924.876008545        7669.669383913            
        9948.305008042      266232.760083914        7653.370589972            
        9961.581416727      270664.774700667        7661.532171785            
        9974.875543308      264179.285034060        7629.710789410            
        9988.187411429      275878.402762922        7656.347979784            
       10001.517044768      265374.342606335        7604.731521398            
       10014.864467032      264376.638907015        7588.374478046            
       10028.229701962      272524.539446420        7609.759744300            
       10041.612773330      259419.437213606        7551.577610394            
       10055.013704939      270030.358546092        7593.176051686            
       10068.432520624      269083.980387555        7579.241715944            
       10081.869244252      271812.973569378        7575.587524970            
       10095.323899722      279443.973904850        7589.772310830            
       10108.796510966      262046.113092292        7511.562418454            
       10122.287101944      266245.435670280        7494.917339055            
       10135.795696653      265640.163008182        7482.003795593            
       10149.322319119      267938.772601118        7477.539714487            
       10162.866993400      276946.104710465        7498.676293505            
       10176.429743588      276221.575136458        7479.439744212            
       10190.010593805      274492.379028287        7467.579953840            
       10203.609568208      268542.506447560        7419.115127155            
       10217.226690982      281396.813888344        7444.960342952            
       10230.861986348      292306.305747813        7461.613870586            
       10244.515478558      282236.884902304        7408.378038091            
       10258.187191897      279449.857885179        7376.577592723            
       10271.877150681      280147.452218719        7367.959141828            
       10285.585379259      279945.906080879        7356.280706176            
       10299.311902013      283619.765374068        7361.352825619            
       10313.056743358      288419.612683010        7368.172911239            
       10326.819927741      289357.807723947        7367.777579799            
       10340.601479640      279415.542823084        7329.811796501            
       10354.401423568      289808.684320380        7357.204553324            
       10368.219784071      291917.704068516        7351.209365173            
       10382.056585725      293311.950147855        7355.214580637            
       10395.911853141      293804.375090844        7353.103142503            
       10409.785610962      314205.445526167        7417.722337793            
       10423.677883866      313154.514274010        7407.750469397            
       10437.588696559      341742.744999440        7501.724234636            
       10451.518073786      366940.205632093        7575.251882893            
       10465.466040321      406309.767987575        7701.586310975            
       10479.432620971      426569.193905137        7751.421831011            
       10493.417840579      455013.898475530        7833.353665244            
       10507.421724019      481214.644775660        7911.042848723            
       10521.444296198      490220.379121027        7924.317652438            
       10535.485582057      492588.000218022        7911.612954968            
       10549.545606571      465530.668869893        7814.472578758            
       10563.624394747      447767.156407575        7740.982557657            
       10577.721971625      431036.213395887        7666.357616517            
       10591.838362281      404275.854621223        7567.636940600            
       10605.973591821      386507.790761555        7505.533340315            
       10620.127685387      366190.826560203        7418.684222074            
       10634.300668154      355200.968503335        7373.488074623            
       10648.492565330      328022.182247295        7285.287627666            
       10662.703402157      320221.420845915        7263.117259582            
       10676.933203912      312156.235910040        7237.647263826            
       10691.181995902      300184.032411255        7213.539917309            
       10705.449803472      298001.239153822        7222.600364235            
       10719.736651999      292799.530033038        7218.302619751            
       10734.042566894      282771.768659299        7203.505230383            
       10748.367573601      294526.304140302        7267.928272400            
       10762.711697599      287439.060273109        7266.606414352            
       10777.074964400      297902.312831857        7324.123649780            
       10791.457399553      292520.082494604        7332.527730110            
       10805.859028638      280930.462507722        7316.547502240            
       10820.279877269      281058.569824681        7341.352168149            
       10834.719971096      291568.962987742        7406.300893822            
       10849.179335803      291413.727429152        7430.370096350            
       10863.657997107      288461.000607758        7444.593386907            
       10878.155980760      283709.280105041        7455.561030884            
       10892.673312549      291400.185706416        7515.769002733            
       10907.210018295      297439.248315645        7566.076317493            
       10921.766123853      294222.672853197        7585.533752054            
       10936.341655112      283938.049499239        7577.094620392            
       10950.936637998      291306.111153526        7628.300801092            
       10965.551098468      286373.341935762        7641.033767309            
       10980.185062518      291441.794720814        7690.881022486            
       10994.838556174      302238.139723907        7752.746186694            
       11009.511605501      303531.619500915        7791.141740194            
       11024.204236595      295201.179857155        7787.732156734            
       11038.916475590      302123.553834409        7841.040441143            
       11053.648348653      295646.004995340        7843.096145583            
       11068.399881987      297310.694556598        7891.508342417            
       11083.171101828      304056.122656027        7948.368703703            
       11097.962034450      307065.628892500        7998.427791506            
       11112.772706160      310856.257720964        8042.542312605            
       11127.603143300      315769.231631333        8100.088561272            
       11142.453372248      333654.693006532        8209.995626772            
       11157.323419418      331974.288813590        8242.183624349            
       11172.213311256      351093.158568341        8366.362897258            
       11187.123074248      355018.131984059        8445.472092154            
       11202.052734911      359016.971892100        8521.465502597            
       11217.002319800      359966.892044424        8588.361924106            
       11231.971855505      362613.487667502        8657.507124167            
       11246.961368650      344318.495296409        8653.946608749            
       11261.970885897      340011.082275228        8680.592294342            
       11277.000433942      336946.267734252        8702.637857803            
       11292.050039516      330422.905872772        8705.463635770            
       11307.119729388      320476.143207702        8695.013355178            
       11322.209530360      309706.880711480        8662.254581809            
       11337.319469271      302659.346056839        8652.987277276            
       11352.449572997      294450.905478695        8649.415917129            
       11367.599868448      298681.635273023        8678.231468008            
       11382.770382571      305688.541801811        8722.706370059            
       11397.961142348      302336.184668760        8731.022134896            
       11413.172174798      284958.159753279        8676.240195910            
       11428.403506976      296632.670708074        8747.659598902            
       11443.655165973      295766.120723252        8777.152091234            
       11458.927178915      310757.958005285        8868.616394397            
       11474.219572966      292126.495057464        8830.588951957            
       11489.532375325      294449.592994593        8888.718225294            
       11504.865613227      297972.573530040        8929.290132322            
       11520.219313945      310259.608910572        9009.032133874            
       11535.593504788      316685.357752918        9063.974911817            
       11550.988213100      303468.545732736        9039.022248931            
       11566.403466262      305726.446865450        9074.216456014            
       11581.839291693      302319.880558753        9084.467762948            
       11597.295716846      309109.251246631        9135.038299912            
       11612.772769214      305792.501338450        9142.782949465            
       11628.270476324      304524.281044796        9159.246947419            
       11643.788865740      311704.522041934        9218.701193383            
       11659.327965064      306048.871198985        9227.420032797            
       11674.887801934      317397.254588923        9313.573104072            
       11690.468404025      316201.583367654        9347.830261634            
       11706.069799049      303182.242543059        9333.063812784            
       11721.692014755      312891.059350714        9409.587594236            
       11737.335078930      312431.115160062        9452.531326476            
       11752.999019396      312041.223500056        9488.672366465            
       11768.683864013      312373.799361898        9525.414225891            
       11784.389640679      316741.182265408        9586.002191830            
       11800.116377329      315424.724796622        9614.619136773            
       11815.864101935      316157.609206391        9643.435384298            
       11831.632842505      322961.725574899        9701.226804873            
       11847.422627087      318845.319023013        9715.947094798            
       11863.233483764      316016.931746229        9733.093901608            
       11879.065440658      312366.688259630        9746.640664373            
       11894.918525928      314762.120608432        9786.709553731            
       11910.792767771      322685.699582722        9848.258629467            
       11926.688194421      305284.784365782        9813.929197394            
       11942.604834151      301877.455254585        9833.575601535            
       11958.542715269      326005.949034417        9962.919233807            
       11974.501866123      320915.121400402        9979.390922369            
       11990.482315098      324357.216474448       10022.850042950            
       12006.484090619      336158.443296209       10106.968131052            
       12022.507221145      314349.219934060       10045.907972846            
       12038.551735176      329894.347220996       10138.044386972            
       12054.617661249      322759.899607208       10133.228985533            
       12070.705027940      323828.705813056       10162.207232878            
       12086.813863861      335600.952158554       10225.730539623            
       12102.944197664      318123.372917359       10168.580205155            
       12119.096058040      312763.916082100       10173.286960753            
       12135.269473715      320262.487129390       10222.273960899            
       12151.464473457      321072.794656124       10240.481573992            
       12167.681086070      340882.240279456       10346.005578610            
       12183.919340398      319418.793952980       10270.783737490            
       12200.179265322      317255.134880631       10266.715931628            
       12216.460889762      342054.654801706       10383.972974968            
       12232.764242677      331113.946544877       10363.030932405            
       12249.089353066      330598.582647359       10366.556009747            
       12265.436249963      327388.137853633       10366.748662070            
       12281.804962445      323390.141463027       10364.386281741            
       12298.195519624      332470.895808848       10410.764686053            
       12314.607950654      332282.823411481       10426.606146190            
       12331.042284726      325588.426360115       10413.274150793            
       12347.498551070      339481.342564770       10500.240440012            
       12363.976778956      331113.080996815       10481.947020884            
       12380.476997693      323191.977978935       10472.090159837            
       12396.999236628      331563.861142193       10528.920375415            
       12413.543525147      334393.092345056       10559.430326266            
       12430.109892678      332288.020219675       10559.615826178            
       12446.698368685      326468.547030823       10556.265007252            
       12463.308982673      337564.102339354       10633.716644762            
       12479.941764186      330721.810486114       10616.310774287            
       12496.596742807      343321.325828745       10699.261109321            
       12513.273948160      323454.280291815       10645.474720972            
       12529.973409906      334175.279918134       10710.843104010            
       12546.695157749      349151.478426042       10792.932899923            
       12563.439221429      337458.626124046       10763.626399854            
       12580.205630727      330749.148342767       10754.082091542            
       12596.994415466      334014.759834283       10786.549253868            
       12613.805605506      341718.782332135       10851.090826785            
       12630.639230748      330658.906716780       10828.809687177            
       12647.495321131      337115.033094031       10873.953712540            
       12664.373906638      340079.117481161       10908.060477281            
       12681.275017289      328608.237577181       10867.165552777            
       12698.198683144      331878.966044265       10901.972246881            
       12715.144934304      329879.422032006       10908.358621893            
       12732.113800910      353626.184382785       11034.462183897            
       12749.105313143      337640.890821795       10984.297858777            
       12766.119501225      327514.028025025       10963.405253976            
       12783.156395418      340759.941051223       11043.698574799            
       12800.216026024      355148.960096659       11125.881275632            
       12817.298423386      361774.404825888       11181.082984436            
       12834.403617886      352550.280124543       11158.894886651            
       12851.531639948      345157.192436156       11138.847715697            
       12868.682520037      359649.360445032       11198.586190095            
       12885.856288658      345887.224572462       11122.433806508            
       12903.052976355      351796.901980403       11145.863971768            
       12920.272613717      334853.992420615       11052.782979395            
       12937.515231369      339488.615271934       11064.856534381            
       12954.780859981      352313.193139350       11116.409908675            
       12972.069530260      353436.025656289       11120.658964646            
       12989.381272958      347687.703450136       11076.752942674            
       13006.716118864      357165.553296307       11396.420813765            
       13024.074098812      338327.968419763       11747.338854792            
