{"redRecord": "/SNS/SNAP/IPTS-30264/shared/SNAPRed/04bd2c53f6bf6754/lite/59063/None/ReductionRecord.json"
"attenuationMethod": null
"backgroundMethod": null}
# Total flight path 15.5806m, tth 85.3035deg, DIFC 5218.45
# Data for spectrum :0
BANK 1 863 863 SLOG       4123      13024  0.0013345 0 FXYE
        4125.524418352       97360.955217307       13458.638850017            
        4131.030094763      119040.469344465       13210.350295802            
        4136.543118719      119510.606420165       12832.977607921            
        4142.063500025      108129.712033164       12575.430287799            
        4147.591248499      104089.489412310       12410.306769689            
        4153.126373973       95687.729787832       12192.972310426            
        4158.668886292      113166.041920247       12287.134023179            
        4164.218795314      111873.048225381       12171.027167831            
        4169.776110911      121886.628142843       12193.336991053            
        4175.340842966      117157.063943609       12055.028969935            
        4180.913001378      120238.094683069       11994.893589915            
        4186.492596056      130218.153082411       12005.124282001            
        4192.079636926      127365.609696061       11886.388467715            
        4197.674133923      121981.169129267       11752.982025749            
        4203.276097000      100634.021281365       11442.282599491            
        4208.885536119      104986.608599583       11418.819044560            
        4214.502461258      116682.742505390       11462.122437447            
        4220.126882406      113622.680455712       11374.374853110            
        4225.758809568      107114.856729339       11280.843718582            
        4231.398252762      116352.447978127       11326.963749252            
        4237.045222016      105939.014990438       11196.524615130            
        4242.699727375      111404.414301322       11195.109919130            
        4248.361778897      114906.735812375       11144.839754732            
        4254.031386652      121263.658494474       11103.683815571            
        4259.708560723      113461.823291718       10965.909137898            
        4265.393311209      102919.953601017       10797.631748282            
        4271.085648221      124231.245344930       10920.296169583            
        4276.785581883      123537.090161667       10860.919376669            
        4282.493122333      117794.836922045       10737.223108949            
        4288.208279723      120599.752733671       10682.819423439            
        4293.931064218      108063.733488307       10489.107190963            
        4299.661485996      119796.153777299       10528.816735203            
        4305.399555250      117177.902500989       10447.698027656            
        4311.145282186      114276.979410494       10374.148451162            
        4316.898677022      116534.611715474       10366.879676854            
        4322.659749993      116011.627856266       10285.157086364            
        4328.428511345      117296.479286576       10260.953334916            
        4334.204971339      104082.490702648       10099.648311385            
        4339.989140248      113107.559880318       10115.599969953            
        4345.781028360      120739.666973518       10108.249711852            
        4351.580645978      108439.675355794        9941.165356123            
        4357.388003415      121898.975842604        9978.524933917            
        4363.203111003      101384.653235080        9722.279172418            
        4369.025979082      119033.529502875        9801.930637692            
        4374.856618011      116082.517463931        9708.932296103            
        4380.695038159      110773.526995752        9603.753486399            
        4386.541249911      116284.606036687        9608.083901914            
        4392.395263665      122507.061813907        9612.973626184            
        4398.257089834      112160.024761458        9485.838249254            
        4404.126738842      125512.554574198        9548.284518754            
        4410.004221131      125147.872904390        9508.943152275            
        4415.889547153      128660.013606263        9472.681020346            
        4421.782727377      128797.282842038        9420.067062242            
        4427.683772285      115709.287449156        9277.807803934            
        4433.592692371      118183.965217080        9253.487040310            
        4439.509498147      120122.469000736        9219.047569929            
        4445.434200135      111696.444638828        9107.744980612            
        4451.366808873      115818.149120264        9095.479366099            
        4457.307334914      127584.539961250        9143.246457154            
        4463.255788823      122896.750850855        9055.648255418            
        4469.212181181      128636.271753819        9056.972889653            
        4475.176522580      118231.543774662        8921.920821555            
        4481.148823631      118746.197042842        8886.198508014            
        4487.129094955      121578.141456824        8832.895132642            
        4493.117347189      127201.275581356        8847.618136749            
        4499.113590984      128905.917183670        8819.256272274            
        4505.117837004      115916.313033524        8685.781457128            
        4511.130095930      125074.906465928        8706.633839490            
        4517.150378454      128746.524875555        8719.081649137            
        4523.178695284      128750.865777141        8657.808232014            
        4529.215057144      129185.045646899        8605.358798043            
        4535.259474768      141345.572313320        8661.093740953            
        4541.311958908      145089.416341106        8654.215835717            
        4547.372520328      130905.757642202        8521.260587256            
        4553.441169809      136236.934387193        8547.352091955            
        4559.517918144      139592.293151028        8553.541490962            
        4565.602776142      122694.189072772        8422.441144200            
        4571.695754624      118111.942119540        8388.368537646            
        4577.796864429      131683.023340284        8480.595857223            
        4583.906116407      140555.636371515        8527.709249957            
        4590.023521425      129007.594433519        8433.832555494            
        4596.149090363      118429.684388504        8324.126094335            
        4602.282834116      122537.945213205        8308.597710440            
        4608.424763595      124049.982251154        8275.100491251            
        4614.574889723      121174.740918232        8225.731944332            
        4620.733223438      114479.026713591        8142.547472126            
        4626.899775695      124419.267518818        8179.300885782            
        4633.074557461      116383.730893226        8093.679437779            
        4639.257579719      128893.337579310        8156.577736355            
        4645.448853466      122542.662066680        8076.573192226            
        4651.648389714      119673.784332842        8046.455866999            
        4657.856199490      130559.605966496        8100.649618349            
        4664.072293835      128614.342510741        8071.982639877            
        4670.296683805      116269.807826319        7964.067171609            
        4676.529380471      123717.143740797        7999.607855531            
        4682.770394918      126863.788001870        7994.881218906            
        4689.019738248      116035.360063615        7907.516344059            
        4695.277421574      116142.216327379        7890.734763298            
        4701.543456028      115534.695614202        7867.689934087            
        4707.817852754      129314.382590200        7937.018354964            
        4714.100622912      127715.011833799        7910.281291074            
        4720.391777677      121086.731251415        7854.994366026            
        4726.691328238      120508.529677764        7833.757441689            
        4732.999285800      132980.751551798        7906.805738347            
        4739.315661582      123221.734294811        7848.925723539            
        4745.640466819      118044.613522137        7815.492896676            
        4751.973712759      133199.671030085        7910.209816223            
        4758.315410669      133168.867585205        7915.025398338            
        4764.665571826      120646.501006421        7828.443151423            
        4771.024207526      120304.189186863        7804.021658025            
        4777.391329079      120712.527853758        7780.286044032            
        4783.766947808      116114.123256503        7728.704202444            
        4790.151075054      125370.410073510        7763.857448274            
        4796.543722172      123412.083487644        7745.542681662            
        4802.944900531      130346.168336854        7789.011614594            
        4809.354621518      121177.365718865        7727.890366447            
        4815.772896532      123426.163743863        7740.078539102            
        4822.199736990      120034.420212620        7716.077149585            
        4828.635154321      115597.708100946        7677.413920436            
        4835.079159973      137884.982650388        7809.356912729            
        4841.531765407      123777.433495454        7719.218745811            
        4847.992982100      120304.286750917        7693.232320186            
        4854.462821543      122398.022566838        7700.791888035            
        4860.941295244      117572.613886274        7658.983513493            
        4867.428414726      121257.554103715        7672.152037597            
        4873.924191527      133339.732782640        7734.456261544            
        4880.428637200      130387.234382197        7707.473610955            
        4886.941763315      128569.244660263        7684.777670799            
        4893.463581455      132827.579281571        7702.731200208            
        4899.994103222      134501.536960140        7713.184388603            
        4906.533340229      123867.797858722        7645.789341672            
        4913.081304108      133875.630029616        7709.579385268            
        4919.638006506      126520.324537235        7674.739780111            
        4926.203459083      144405.808576028        7795.949335774            
        4932.777673518      138754.809171360        7772.290908821            
        4939.360661504      131470.796864510        7745.852833595            
        4945.952434749      128339.567701827        7737.642985969            
        4952.553004978      130856.753963223        7772.326053754            
        4959.162383930      135960.162191233        7812.435304896            
        4965.780583361      141510.677267822        7855.870961662            
        4972.407615042      141059.607338680        7868.284915881            
        4979.043490761      137722.303802947        7855.266338957            
        4985.688222320      132223.652972557        7819.355570807            
        4992.341821538      136273.600331272        7850.793447852            
        4999.004300248      136793.788255574        7865.613264655            
        5005.675670301      128863.355969659        7821.796137016            
        5012.355943562      134972.508121707        7871.364853734            
        5019.045131914      131784.225339945        7861.947558692            
        5025.743247254      120748.118516689        7809.086929251            
        5032.450301496      130706.916671267        7884.448478087            
        5039.166306567      139416.459409683        7954.287576334            
        5045.891274415      135187.872046117        7944.918645976            
        5052.625217000      122654.860219039        7886.534211826            
        5059.368146299      126029.188417905        7935.276070684            
        5066.120074305      114106.209690928        7896.287978836            
        5072.881013028      135209.945342733        8053.876841980            
        5079.650974492      128159.691656322        8039.445202605            
        5086.429970739      133614.610309750        8096.738038081            
        5093.218013827      132129.727884933        8101.135255249            
        5100.015115827      135747.208564762        8127.506695099            
        5106.821288831      134277.838764138        8136.156928171            
        5113.636544943      147791.351762493        8233.222659418            
        5120.460896286      143684.131749160        8238.744971524            
        5127.294354997      141059.395403211        8258.563296658            
        5134.136933230      145377.283010768        8306.088200144            
        5140.988643156      130354.444013749        8228.725378072            
        5147.849496961      134611.673010014        8283.184004234            
        5154.719506849      136739.724521765        8296.654037570            
        5161.598685038      149578.320976474        8389.283742497            
        5168.487043764      138835.977974379        8336.612160787            
        5175.384595279      135036.177053814        8314.031168785            
        5182.291351850      146684.499071450        8393.413903713            
        5189.207325763      146908.984901003        8401.395980602            
        5196.132529318      155134.337696841        8462.661462594            
        5203.066974833      150763.475413654        8448.630023881            
        5210.010674641      147951.209286399        8454.159121424            
        5216.963641092      143179.940450774        8438.280405115            
        5223.925886554      146234.956591619        8488.887138714            
        5230.897423409      147404.337010175        8510.020889846            
        5237.878264058      143865.896509467        8503.800924170            
        5244.868420916      149286.940451975        8573.465413716            
        5251.867906416      141038.516272983        8557.294193641            
        5258.876733008      142894.463768884        8596.985654569            
        5265.894913158      151865.114774148        8682.147498704            
        5272.922459348      150119.580336263        8700.996522255            
        5279.959384078      147889.042917601        8706.081283227            
        5287.005699865      145692.458407469        8702.174098753            
        5294.061419239      152133.435714014        8759.011905537            
        5301.126554752      147697.099189541        8744.089911840            
        5308.201118970      154221.935171923        8792.422286461            
        5315.285124474      147006.963051521        8738.207741647            
        5322.378583866      150400.122387224        8767.089236962            
        5329.481509761      147423.812925174        8738.066587721            
        5336.593914794      157515.486992813        8792.681336814            
        5343.715811614      143246.645771564        8696.983708573            
        5350.847212888      153383.519976843        8762.320104461            
        5357.988131301      161544.534008407        8810.533703815            
        5365.138579553      149968.966046047        8731.739728710            
        5372.298570364      154677.678862395        8758.683717456            
        5379.468116466      142238.445098666        8676.069697176            
        5386.647230613      139732.613042908        8660.297003472            
        5393.835925574      166822.425068703        8824.422711322            
        5401.034214134      147269.931798370        8708.970623052            
        5408.242109096      158529.656811239        8788.733828627            
        5415.459623280      153394.492157716        8748.356949590            
        5422.686769525      151028.818491349        8732.719805076            
        5429.923560683      141044.391417897        8673.655670583            
        5437.170009627      142846.095950608        8688.575517358            
        5444.426129246      152782.911958403        8769.842478718            
        5451.691932444      141404.849016505        8717.511268517            
        5458.967432146      160903.667501600        8870.400823569            
        5466.252641292      144465.500045243        8782.874596117            
        5473.547572839      146145.789690011        8817.331451184            
        5480.852239762      145073.860040559        8824.734111599            
        5488.166655054      159922.444559334        8944.184322200            
        5495.490831723      148990.508811676        8894.849099208            
        5502.824782798      158057.186833600        8975.492667219            
        5510.168521323      155009.740826192        8977.405719797            
        5517.522060358      161597.659233191        9043.186851772            
        5524.885412984      158202.021012645        9050.343925126            
        5532.258592296      167477.991304786        9148.851845900            
        5539.641611410      169869.397440773        9206.873067570            
        5547.034483456      156830.954044133        9156.762590373            
        5554.437221585      174866.843183503        9314.613466312            
        5561.849838961      164422.177414771        9283.359143339            
        5569.272348770      162458.237407027        9293.888982659            
        5576.704764214      158598.337707083        9292.858343062            
        5584.147098512      159614.373724270        9350.755781002            
        5591.599364901      176491.208711518        9511.860581065            
        5599.061576635      161466.083524178        9463.152138920            
        5606.533746988      175460.221290612        9594.517750163            
        5614.015889250      163122.582211504        9584.091714457            
        5621.508016728      159872.064154546        9622.683697878            
        5629.010142748      167539.348864315        9708.733840922            
        5636.522280654      160466.930050575        9709.003079257            
        5644.044443806      142518.369031798        9637.612869855            
        5651.576645585      157546.114434066        9769.067788780            
        5659.118899386      149586.666819137        9722.304131426            
        5666.671218625      162373.743607739        9826.984584879            
        5674.233616734      162351.666869749        9843.947430109            
        5681.806107164      146494.138451368        9755.633743158            
        5689.388703384      168981.618910409        9908.098576823            
        5696.981418880      159240.204537041        9856.792335627            
        5704.584267157      169626.340346348        9946.682919997            
        5712.197261737      154746.948762789        9846.205004687            
        5719.820416162      167350.031833137        9920.599600550            
        5727.453743989      165433.106062892        9885.206831451            
        5735.097258795      160739.564246845        9835.071705754            
        5742.750974177      164515.337105698        9840.294268680            
        5750.414903745      163940.247905527        9820.871934470            
        5758.089061133      166102.506006400        9819.757159937            
        5765.773459989      154154.493265995        9733.546048910            
        5773.468113980      145398.333436580        9664.878683297            
        5781.173036794      150315.337496526        9679.881251073            
        5788.888242133      160323.123840442        9713.706492667            
        5796.613743721      164692.090937289        9706.109131679            
        5804.349555298      154270.657647909        9599.927965792            
        5812.095690623      145362.027008508        9488.534652985            
        5819.852163474      161627.106119686        9557.869865573            
        5827.618987646      164844.657155290        9545.990755996            
        5835.396176954      169119.991442811        9541.772987687            
        5843.183745230      181066.699045771        9574.883105735            
        5850.981706326      174022.451515135        9494.610418342            
        5858.790074112      174169.588192926        9462.046484034            
        5866.608862474      170579.362995414        9387.670548915            
        5874.438085321      189709.084059662        9464.689213117            
        5882.277756577      202339.473072966        9501.703460141            
        5890.127890186      216293.393522228        9532.270207682            
        5897.988500110      204226.093192271        9398.502354101            
        5905.859600331      213527.684878289        9402.903403661            
        5913.741204848      222207.619111175        9415.812966991            
        5921.633327680      231072.129187896        9416.572228187            
        5929.535982864      224562.465610030        9334.314200933            
        5937.449184456      204156.218800805        9172.235901842            
        5945.372946529      214532.996559621        9195.697133859            
        5953.307283178      201489.868080188        9071.783297846            
        5961.252208516      202879.427004403        9041.812683048            
        5969.207736672      175846.605550012        8831.523533208            
        5977.173881796      173333.901079470        8757.137848160            
        5985.150658058      189321.346141079        8794.164485170            
        5993.138079646      177297.195790941        8663.690480349            
        6001.136160765      166949.391319938        8546.717865400            
        6009.144915641      176592.383926857        8566.271757282            
        6017.164358519      169801.597423364        8480.314338494            
        6025.194503663      161638.084421146        8387.417754583            
        6033.235365355      166055.720208449        8357.830461712            
        6041.286957897      175357.375641165        8363.250562448            
        6049.349295609      168187.306552226        8259.696532876            
        6057.422392831      168343.077401227        8207.999351876            
        6065.506263923      156068.932693175        8091.399215481            
        6073.600923262      158912.275099440        8057.276887076            
        6081.706385246      165211.258036570        8034.268490805            
        6089.822664291      167730.245987769        7991.210052513            
        6097.949774834      161459.001900534        7907.808929137            
        6106.087731328      169003.587417820        7898.767910642            
        6114.236548250      166023.309790383        7839.645948268            
        6122.396240091      160787.071949396        7777.371845739            
        6130.566821366      173986.955375158        7812.204632194            
        6138.748306607      162345.840070854        7717.340688899            
        6146.940710365      158779.401380329        7663.525750688            
        6155.144047212      166159.381201733        7678.557938753            
        6163.358331737      175411.641704057        7704.486408503            
        6171.583578553      155021.869420210        7583.175468390            
        6179.819802287      166947.101301053        7629.989254726            
        6188.067017589      168934.119649735        7614.688825489            
        6196.325239129      159620.588777598        7548.027487978            
        6204.594481593      163338.193893615        7539.493204127            
        6212.874759690      170905.671007889        7560.688815809            
        6221.166088148      168329.690424600        7522.890879211            
        6229.468481713      170374.484266410        7514.956307515            
        6237.781955153      165348.098550347        7465.328294423            
        6246.106523254      172550.722228376        7478.992874481            
        6254.442200821      173971.476044309        7456.174521984            
        6262.789002682      163290.863998463        7370.289706471            
        6271.146943683      164676.100351258        7356.227871624            
        6279.516038687      172987.127983896        7372.771829313            
        6287.896302582      169221.286311101        7338.521832085            
        6296.287750273      172840.790005975        7336.200993697            
        6304.690396684      173646.698431244        7323.447365577            
        6313.104256761      171784.205670398        7289.714497555            
        6321.529345468      182233.976796064        7314.295836898            
        6329.965677792      169198.598256493        7217.028092399            
        6338.413268737      163715.343573911        7163.960225624            
        6346.872133327      175234.974878531        7200.944237936            
        6355.342286609      175064.033667260        7177.179757639            
        6363.823743648      181139.641087052        7198.408148227            
        6372.316519528      176786.195661918        7172.602662229            
        6380.820629355      171262.911705119        7147.980436278            
        6389.336088256      175828.166332970        7172.317163744            
        6397.862911374      175319.772647997        7174.425026849            
        6406.401113877      183147.227653902        7210.584618232            
        6414.950710952      200862.081519741        7297.887196523            
        6423.511717803      183206.127478284        7202.993941510            
        6432.084149658      168049.736452418        7123.828177681            
        6440.668021765      169638.001717934        7138.346485128            
        6449.263349391      176119.670156542        7181.478447973            
        6457.870147823      171136.197727402        7169.576439902            
        6466.488432369      176187.389069087        7210.241777559            
        6475.118218360      174680.851106299        7222.052632683            
        6483.759521143      175655.917516234        7246.262374550            
        6492.412356088      183049.350083864        7298.098281166            
        6501.076738585      183302.414502030        7307.345598806            
        6509.752684046      172979.944306687        7262.955670294            
        6518.440207901      172940.506566144        7269.961710304            
        6527.139325602      174991.012038594        7284.816829464            
        6535.850052621      180106.132064846        7320.251179397            
        6544.572404452      177704.558982903        7323.249879912            
        6553.306396609      174576.746605658        7325.561386447            
        6562.052044625      182505.635385260        7390.962904824            
        6570.809364057      178083.900291071        7377.030347119            
        6579.578370479      179906.666471306        7405.828828244            
        6588.359079490      172242.806492229        7383.762839858            
        6597.151506705      180008.467085235        7438.666926851            
        6605.955667765      180567.029811118        7454.585268073            
        6614.771578328      171326.211497049        7428.059331641            
        6623.599254074      178369.588016980        7492.246833735            
        6632.438710704      177747.852965185        7507.323031207            
        6641.289963941      182340.624368467        7558.174402269            
        6650.153029527      176894.526040217        7545.028117789            
        6659.027923226      176940.731039012        7562.100769589            
        6667.914660825      177954.655725424        7578.064762001            
        6676.813258128      176828.197588575        7582.102643509            
        6685.723730963      175992.460749348        7597.654829707            
        6694.646095178      178661.041663407        7632.010278348            
        6703.580366644      188550.565135521        7712.239942358            
        6712.526561250      180360.716674723        7687.318155172            
        6721.484694908      179843.803433245        7703.052455644            
        6730.454783552      183158.665043283        7734.545350558            
        6739.436843136      182972.999619943        7752.266905556            
        6748.430889636      184586.228698121        7778.939729183            
        6757.436939049      187413.323926897        7816.288887116            
        6766.455007392      190504.902153696        7867.095281370            
        6775.485110707      190742.953316205        7893.097526520            
        6784.527265054      182194.058214478        7873.185806855            
        6793.581486515      176211.603067301        7866.782651934            
        6802.647791195      174070.628325537        7882.471808821            
        6811.726195219      185171.150222728        7975.699246720            
        6820.816714734      183004.311098266        7987.658907822            
        6829.919365909      188081.865467051        8035.504722093            
        6839.034164934      186416.074001573        8050.844515559            
        6848.161128021      183588.540946527        8052.944496168            
        6857.300271403      197073.415667309        8136.927082882            
        6866.451611335      193222.304344475        8120.152278874            
        6875.615164095      197448.096472316        8146.914901332            
        6884.790945980      193890.648201903        8119.417889399            
        6893.978973311      193165.602732053        8121.532009573            
        6903.179262430      199492.761796070        8171.021500365            
        6912.391829700      194362.074308069        8144.076447171            
        6921.616691508      191713.119588307        8156.009894307            
        6930.853864261      193719.014403463        8192.452890980            
        6940.103364388      194359.624727694        8210.883401579            
        6949.365208342      209157.587085097        8310.650759098            
        6958.639412594      192766.003751125        8231.835433969            
        6967.925993640      190224.293911697        8219.794866833            
        6977.224967999      186945.310310788        8204.500296807            
        6986.536352208      197205.093374672        8273.357608999            
        6995.860162830      186944.545495314        8231.719683303            
        7005.196416448      194080.126936976        8307.378691732            
        7014.545129668      179851.039060963        8245.962600397            
        7023.906319118      190689.769029818        8359.128671406            
        7033.280001447      188537.899724957        8390.493677341            
        7042.666193328      201598.586894689        8509.195241076            
        7052.064911455      179913.657619798        8414.704170681            
        7061.476172546      196743.673648355        8568.125015702            
        7070.899993339      198070.489559089        8616.396048096            
        7080.336390595      202361.894120329        8683.066598869            
        7089.785381099      199696.727398088        8713.309980877            
        7099.246981656      199341.194291297        8748.316010860            
        7108.721209096      202160.827407362        8807.940168952            
        7118.208080269      199011.509619991        8830.961175250            
        7127.707612048      218052.410783767        8986.202243027            
        7137.219821331      225225.709124351        9081.081496635            
        7146.744725036      211964.167862122        9042.306105881            
        7156.282340103      227170.129673309        9167.427483943            
        7165.832683497      238391.051415942        9265.973066990            
        7175.395772204      240762.037294201        9328.548481544            
        7184.971623233      262314.517425552        9499.386328725            
        7194.560253616      266028.825895878        9554.933221993            
        7204.161680408      261479.620036702        9576.072946469            
        7213.775920685      274489.186717955        9696.907972729            
        7223.402991549      289237.099463193        9828.234418405            
        7233.042910122      269523.961481924        9752.961417898            
        7242.695693549      258176.465004187        9732.356221864            
        7252.361359000      273598.897700477        9879.477415127            
        7262.039923665      277770.361041558        9952.887861459            
        7271.731404760      255340.280482045        9859.702517511            
        7281.435819523      270257.017661725        9981.240322255            
        7291.153185212      248555.819574025        9902.057432687            
        7300.883519113      261416.042366647       10024.129001669            
        7310.626838531      255036.173493263       10034.829021866            
        7320.383160796      237676.557949753        9984.340790497            
        7330.152503262      240490.232247003       10043.736118476            
        7339.934883303      223086.141471471        9957.408058673            
        7349.730318320      225744.265647902       10003.157095953            
        7359.538825734      226243.738504133       10054.297032803            
        7369.360422992      216905.010775894       10024.025629393            
        7379.195127562      217280.795133264       10078.965332330            
        7389.042956936      217148.510124836       10138.232253064            
        7398.903928630      212305.913409482       10169.749813513            
        7408.778060183      215208.027512116       10224.950816758            
        7418.665369157      203977.589507763       10199.202862689            
        7428.565873138      191303.061830267       10148.178088078            
        7438.479589736      206326.573515270       10270.872644578            
        7448.406536582      189175.339877387       10192.023114466            
        7458.346731334      203262.874954418       10304.016976913            
        7468.300191672      211817.906748609       10371.143443866            
        7478.266935298      196437.368250078       10294.557197900            
        7488.246979939      202043.625525052       10355.082436139            
        7498.240343348      212190.870671935       10434.069062242            
        7508.247043297      213895.341633555       10475.933234963            
        7518.267097585      216017.557085787       10502.540161650            
        7528.300524034      214283.539375200       10516.003486720            
        7538.347340490      196995.758129890       10439.033674579            
        7548.407564821      211890.301403573       10570.901179900            
        7558.481214923      214218.353844186       10625.386986294            
        7568.568308711      200464.696045194       10611.394469954            
        7578.668864127      196261.683241943       10644.492268584            
        7588.782899135      215030.945484390       10801.468526787            
        7598.910431726      196499.589779674       10719.754654434            
        7609.051479912      202725.729910176       10782.659714276            
        7619.206061730      214862.401789282       10881.154134905            
        7629.374195241      201104.782180624       10821.884532039            
        7639.555898531      209745.133824643       10913.432002428            
        7649.751189708      203671.604181485       10927.395616487            
        7659.960086908      187300.641692656       10853.828241419            
        7670.182608286      206214.351142862       11013.583637163            
        7680.418772026      207412.439064821       11054.521848163            
        7690.668596334      217868.749351384       11129.892513850            
        7700.932099440      219500.548224472       11139.763498385            
        7711.209299598      213996.606518100       11125.482929499            
        7721.500215090      220474.233762774       11155.539017995            
        7731.804864217      210544.551731523       11077.679833780            
        7742.123265308      212077.920804074       11077.893645838            
        7752.455436716      199422.751209226       10991.711819234            
        7762.801396817      208771.344660261       11035.896926193            
        7773.161164014      213240.514353123       11060.431233322            
        7783.534756732      209834.139474476       11033.198552327            
        7793.922193422      233477.728365492       11161.132285877            
        7804.323492560      211773.401092524       11018.598661724            
        7814.738672645      216267.899895527       10991.292768852            
        7825.167752202      208074.365045497       10891.137495534            
        7835.610749780      209146.097866386       10831.151845424            
        7846.067683954      214480.542112316       10809.365133639            
        7856.538573322      225317.983564303       10775.438182316            
        7867.023436509      222841.797508617       10685.963149138            
        7877.522292163      213713.326452534       10546.085986965            
        7888.035158957      220748.556813916       10503.081215921            
        7898.562055590      217306.598885855       10397.288223874            
        7909.103000785      211587.382222292       10278.259362373            
        7919.658013291      213138.942113080       10222.017675678            
        7930.227111881      213994.895267903       10145.388679883            
        7940.810315353      216714.627239502       10071.700945125            
        7951.407642531      229664.450669263       10062.849225618            
        7962.019112264      218971.313196277        9927.921907736            
        7972.644743425      212114.539448389        9820.305253061            
        7983.284554913      219082.437755623        9773.105071823            
        7993.938565653      216219.045582189        9679.480405072            
        8004.606794594      212483.757245544        9576.635324865            
        8015.289260711      219941.667961535        9528.549261373            
        8025.985983004      222292.676046654        9452.875512213            
        8036.696980498      224537.172724390        9378.374465328            
        8047.422272244      219147.772615054        9281.299565805            
        8058.161877319      207289.260410952        9141.901151324            
        8068.915814823      213340.066229921        9100.766720358            
        8079.684103885      227677.795768421        9107.636353492            
        8090.466763657      211551.786225788        8966.380970874            
        8101.263813318      221711.750496928        8963.814630928            
        8112.075272070      209596.184149741        8844.550899643            
        8122.901159144      220423.660514886        8858.903199932            
        8133.741493795      219533.500569302        8801.187007870            
        8144.596295304      225887.859937995        8797.103946371            
        8155.465582977      221685.203549295        8734.793218057            
        8166.349376147      225695.031595044        8716.320879513            
        8177.247694172      234370.550997563        8731.640056858            
        8188.160556435      222480.744548704        8647.364245342            
        8199.087982347      215382.236537388        8587.427410185            
        8210.029991344      225613.694198935        8611.485560143            
        8220.986602886      229732.342859557        8610.474436685            
        8231.957836463      228594.601075360        8584.353735013            
        8242.943711587      220893.672036553        8527.451316255            
        8253.944247799      231690.756752990        8554.480277370            
        8264.959464663      229000.080743386        8526.374857594            
        8275.989381773      228148.295478579        8519.077833187            
        8287.034018745      253460.476269887        8632.528726139            
        8298.093395225      239684.845418436        8568.419841748            
        8309.167530883      273268.672061093        8732.070397816            
        8320.256445415      281340.959548727        8783.259708686            
        8331.360158544      302120.693784341        8897.805522633            
        8342.478690021      314207.204057798        8976.754522563            
        8353.612059619      322591.953694508        9025.799335341            
        8364.760287143      327235.946009581        9074.521537801            
        8375.923392419      328798.086196127        9088.598962767            
        8387.101395303      329337.595228601        9098.383045837            
        8398.294315677      329988.278326604        9110.865958211            
        8409.502173448      321649.987835830        9078.982704549            
        8420.724988551      309399.221106006        9019.978823807            
        8431.962780947      291789.871949930        8941.842779100            
        8443.215570624      268778.029689902        8827.033954700            
        8454.483377596      284597.841402539        8898.864942579            
        8465.766221905      269188.948716572        8830.596276946            
        8477.064123618      262077.398896094        8812.772189524            
        8488.377102831      246270.272877600        8749.485064098            
        8499.705179664      247070.535102722        8767.672859049            
        8511.048374266      238363.919346760        8737.803743513            
        8522.406706812      239648.184276152        8749.070873585            
        8533.780197505      239345.720824086        8749.887433989            
        8545.168866574      240535.675698532        8756.229003518            
        8556.572734275      242121.070844569        8765.113559801            
        8567.991820890      232639.632533355        8725.215632594            
        8579.426146731      226627.025239181        8700.857130260            
        8590.875732134      239417.370771660        8770.347633359            
        8602.340597465      234459.756853010        8743.482117256            
        8613.820763114      236783.774500651        8755.792828153            
        8625.316249501      220491.525817734        8680.782260242            
        8636.827077071      229284.484046710        8730.452007169            
        8648.353266299      243359.918935312        8800.791458316            
        8659.894837684      227620.893358910        8730.381663806            
        8671.451811756      234971.770632390        8780.693104907            
        8683.024209069      240035.916165197        8804.323348413            
        8694.612050207      239131.219184752        8798.351583849            
        8706.215355780      238422.251323315        8793.507683636            
        8717.834146425      243193.797804524        8809.324888433            
        8729.468442808      236660.021019558        8765.686786084            
        8741.118265623      237399.961666088        8763.267418495            
        8752.783635590      237901.283563957        8757.047443797            
        8764.464573457      234550.138232127        8733.797292388            
        8776.161099999      230434.801340670        8715.430944067            
        8787.873236022      240303.402227874        8764.934288417            
        8799.601002356      243444.112931558        8771.163563171            
        8811.344419861      236469.956106319        8746.057576261            
        8823.103509423      233459.491167962        8727.386258683            
        8834.878291958      234679.526128360        8727.369326696            
        8846.668788409      240662.131852556        8752.362207520            
        8858.475019746      237327.499569194        8741.535548066            
        8870.297006968      250030.292992221        8792.884911968            
        8882.134771103      253967.795558238        8809.916646821            
        8893.988333204      238968.549331519        8739.749762005            
        8905.857714356      234306.256117014        8712.192579561            
        8917.742935669      234476.722647949        8704.050404831            
        8929.644018282      241919.629883330        8734.113246144            
        8941.560983363      236197.819668304        8699.237026562            
        8953.493852109      247220.643758277        8750.812193029            
        8965.442645742      245982.133742744        8743.715730245            
        8977.407385515      245337.372851438        8746.979200639            
        8989.388092710      252005.794998683        8776.962059933            
        9001.384788634      237866.881926017        8709.886366573            
        9013.397494627      234468.853762254        8687.499278366            
        9025.426232053      244099.038915572        8729.865869563            
        9037.471022308      243880.812772389        8721.235798460            
        9049.531886815      234791.181232622        8674.225899031            
        9061.608847025      241914.466775350        8703.858835967            
        9073.701924418      241846.644623182        8699.428218118            
        9085.811140505      244898.504296752        8709.117703861            
        9097.936516822      253815.639183263        8738.077985198            
        9110.078074935      245408.312074089        8694.289427138            
        9122.235836441      235462.591438742        8651.470586525            
        9134.409822963      244895.453897392        8693.001988444            
        9146.600056155      250274.287528947        8719.073135336            
        9158.806557697      236727.290797526        8659.478882306            
        9171.029349301      246771.999998562        8706.487231582            
        9183.268452707      248009.751120032        8707.122559787            
        9195.523889683      245057.471356930        8696.610306587            
        9207.795682027      239860.735982887        8668.689343959            
        9220.083851566      253276.672362056        8721.970951398            
        9232.388420156      261861.691417240        8753.263010643            
        9244.709409682      252516.087845100        8697.263505125            
        9257.046842058      261095.173143125        8713.698149395            
        9269.400739229      268095.351553021        8732.073002360            
        9281.771123167      241577.755804326        8601.678633363            
        9294.158015874      262432.958138165        8682.160014247            
        9306.561439382      254823.883168221        8633.120474746            
        9318.981415752      256762.819344197        8638.775331561            
        9331.417967075      251151.139353180        8608.191412150            
        9343.871115470      244391.203934588        8578.880320540            
        9356.340883086      255148.094007340        8628.614456511            
        9368.827292104      249672.084639444        8604.231861770            
        9381.330364731      273481.705850362        8708.216959191            
        9393.850123205      266535.022915735        8670.830027426            
        9406.386589796      253242.295869755        8609.560794481            
        9418.939786799      247792.740482005        8588.373105242            
        9431.509736543      257329.495406387        8641.136025496            
        9444.096461385      260169.699681961        8662.631812594            
        9456.699983712      256938.670979168        8656.021600151            
        9469.320325941      251322.546570163        8638.985695411            
        9481.957510518      261054.424423030        8681.811442050            
        9494.611559921      262577.469246683        8683.924786226            
        9507.282496655      259189.187270738        8658.045186816            
        9519.970343259      254454.994175139        8627.331249341            
        9532.675122299      249325.747783810        8590.694503674            
        9545.396856372      246725.426467094        8567.303771515            
        9558.135568104      265392.654707712        8636.529039164            
        9570.891280155      254167.122537107        8578.240347078            
        9583.664015210      263780.100441862        8613.105329318            
        9596.453795988      268405.648837054        8614.698022477            
        9609.260645237      272004.582674535        8620.738739545            
        9622.084585736      273206.898884977        8609.417053167            
        9634.925640294      267312.669257607        8576.447304645            
        9647.783831749      259393.973615927        8532.884972480            
        9660.659182972      260389.687693207        8534.871894809            
        9673.551716864      266490.684611299        8559.767176306            
        9686.461456355      270669.257178958        8578.681617353            
        9699.388424407      269902.253054964        8567.395556978            
        9712.332644011      275558.271416799        8583.552221831            
        9725.294138192      271239.700382235        8563.308627636            
        9738.272930002      270250.183705647        8556.017478565            
        9751.269042526      270498.771515700        8558.701437300            
        9764.282498879      282019.943363366        8615.246103715            
        9777.313322206      263933.146927766        8548.466570664            
        9790.361535686      256883.227773121        8526.473338286            
        9803.427162526      269479.513215650        8595.355978209            
        9816.510225964      265990.066534320        8591.706234262            
        9829.610749271      264246.499745356        8594.863044419            
        9842.728755748      269944.537448018        8629.286016661            
        9855.864268725      267002.437566863        8624.911009086            
        9869.017311567      274290.553574723        8652.949972649            
        9882.187907668      286571.267725222        8699.147967025            
        9895.376080453      260035.305765626        8585.671152938            
        9908.581853379      270984.483455614        8635.449858291            
        9921.805249935      272812.468058824        8639.524049220            
        9935.046293639      273005.070309055        8648.951392205            
        9948.305008042      284779.306119552        8708.772689589            
        9961.581416727      273541.738268709        8651.202118246            
        9974.875543308      276663.563416834        8655.511582898            
        9988.187411429      283572.292574744        8666.629687446            
       10001.517044768      286396.895387597        8664.383433904            
       10014.864467032      272262.926513970        8589.523889668            
       10028.229701962      284617.360030969        8632.347918053            
       10041.612773330      280291.546323897        8602.208588586            
       10055.013704939      270380.327783318        8562.199176785            
       10068.432520624      275164.613386708        8571.111045774            
       10081.869244252      290057.614405088        8619.390124177            
       10095.323899722      290039.729432650        8604.529365406            
       10108.796510966      294195.012236173        8604.955065688            
       10122.287101944      305709.340300516        8617.980577194            
       10135.795696653      323483.417368245        8679.113296077            
       10149.322319119      326873.500369990        8678.431865782            
       10162.866993400      340778.184872292        8722.842398905            
       10176.429743588      384442.399911722        8882.728402400            
       10190.010593805      401135.429183786        8943.116487677            
       10203.609568208      425372.881051988        9011.405286532            
       10217.226690982      451100.458639886        9090.591804763            
       10230.861986348      470884.788283150        9143.567540658            
       10244.515478558      503133.438897249        9250.590865324            
       10258.187191897      522900.227495041        9303.693325755            
       10271.877150681      504356.505946774        9218.184534047            
       10285.585379259      486136.109929314        9134.799782189            
       10299.311902013      462952.384285757        9034.226844872            
       10313.056743358      445461.940515151        8953.034133239            
       10326.819927741      418803.987991184        8841.641882700            
       10340.601479640      387361.509573895        8711.363067320            
       10354.401423568      377376.030942703        8659.414908133            
       10368.219784071      363619.655763567        8587.813392021            
       10382.056585725      340222.657221638        8490.900465364            
       10395.911853141      339616.633759845        8484.903580368            
       10409.785610962      311895.626924613        8362.489342701            
       10423.677883866      306780.960762729        8334.201855550            
       10437.588696559      308294.596891507        8333.515713269            
       10451.518073786      298632.647162028        8277.409289309            
       10465.466040321      291966.159529257        8239.236777915            
       10479.432620971      293413.987371126        8223.469768323            
       10493.417840579      280703.952644421        8155.263236260            
       10507.421724019      275385.756854935        8122.463194477            
       10521.444296198      289791.883132105        8164.078959937            
       10535.485582057      294197.609635185        8157.896885009            
       10549.545606571      281133.891129187        8095.543002327            
       10563.624394747      286785.446481198        8103.275854727            
       10577.721971625      294932.275658262        8115.750408442            
       10591.838362281      278955.347600720        8040.032082697            
       10605.973591821      281522.630248375        8049.496427432            
       10620.127685387      300480.311181839        8110.245455890            
       10634.300668154      295193.513077988        8080.536430611            
       10648.492565330      297404.784451220        8098.006341745            
       10662.703402157      297245.112814530        8103.188962179            
       10676.933203912      301357.001085986        8124.278936607            
       10691.181995902      284793.817309238        8075.226297864            
       10705.449803472      291149.867805245        8120.764510795            
       10719.736651999      289848.084873870        8131.563500516            
       10734.042566894      287080.877744866        8143.524518600            
       10748.367573601      292656.190619508        8192.167368695            
       10762.711697599      294294.506107768        8226.285375927            
       10777.074964400      302714.919781665        8284.673652852            
       10791.457399553      293598.465872119        8277.805206163            
       10805.859028638      290416.883528574        8293.912256269            
       10820.279877269      305080.670443120        8383.470747391            
       10834.719971096      294974.891901967        8370.770634515            
       10849.179335803      301961.802994199        8428.531896346            
       10863.657997107      307418.154369408        8479.715874006            
       10878.155980760      304168.832396978        8497.471036702            
       10892.673312549      297483.580103102        8504.280172734            
       10907.210018295      301059.302943138        8551.329404920            
       10921.766123853      309663.370928587        8623.192451789            
       10936.341655112      303383.434033688        8629.923198025            
       10950.936637998      311574.776659518        8692.504304628            
       10965.551098468      316710.857941780        8750.258895054            
       10980.185062518      318122.646768375        8791.785490878            
       10994.838556174      322283.433642053        8834.619413229            
       11009.511605501      320898.546812348        8866.726916369            
       11024.204236595      339145.970542117        8976.287041680            
       11038.916475590      365977.438338377        9122.817591387            
       11053.648348653      355988.392677929        9109.549008790            
       11068.399881987      375212.250139886        9239.402264232            
       11083.171101828      380665.194447161        9297.518307109            
       11097.962034450      392375.905558716        9390.279356589            
       11112.772706160      383206.453825031        9383.130786891            
       11127.603143300      374277.601461183        9386.586279543            
       11142.453372248      372402.727344863        9424.362010090            
       11157.323419418      362897.606616695        9422.918847166            
       11172.213311256      352289.907055088        9433.835569502            
       11187.123074248      350509.020982524        9495.170909217            
       11202.052734911      317593.394613434        9417.369243667            
       11217.002319800      314804.279917070        9473.262334969            
       11231.971855505      305863.540363952        9498.542281857            
       11246.961368650      296844.442482860        9528.507043427            
       11261.970885897      320116.843959871        9678.223087592            
       11277.000433942      314157.966265458        9689.121412150            
       11292.050039516      306348.045748125        9685.842890457            
       11307.119729388      299132.520507960        9685.307326307            
       11322.209530360      314677.301444478        9765.449130172            
       11337.319469271      309404.283625492        9765.082914562            
       11352.449572997      301509.268770196        9764.701737771            
       11367.599868448      314749.418529434        9841.521679872            
       11382.770382571      316873.754149042        9873.974755968            
       11397.961142348      307951.146214249        9859.811728641            
       11413.172174798      311339.790128781        9889.634871099            
       11428.403506976      335417.444579334       10026.640443571            
       11443.655165973      307836.674101264        9937.253699102            
       11458.927178915      319393.110107363       10025.513313967            
       11474.219572966      315778.809093431       10044.019948674            
       11489.532375325      317236.154624000       10103.303567513            
       11504.865613227      311118.648605028       10104.702901120            
       11520.219313945      327112.619402599       10213.796337154            
       11535.593504788      318469.555717776       10210.158588097            
       11550.988213100      312848.816651634       10217.005144554            
       11566.403466262      323657.258146636       10299.667064696            
       11581.839291693      347844.462185118       10439.849738566            
       11597.295716846      322195.942807306       10353.025149341            
       11612.772769214      331416.753432489       10422.731123592            
       11628.270476324      338231.769282660       10480.861254607            
       11643.788865740      336086.464951184       10507.830332578            
       11659.327965064      330077.206714915       10516.551418741            
       11674.887801934      337249.357053889       10596.751052214            
       11690.468404025      337334.677511506       10640.529386714            
       11706.069799049      338873.591364628       10690.362952951            
       11721.692014755      338051.734180054       10729.187958012            
       11737.335078930      332653.632123073       10754.598161741            
       11752.999019396      349247.418878679       10875.449085969            
       11768.683864013      349361.487273554       10915.973293684            
       11784.389640679      342813.351357003       10933.545038031            
       11800.116377329      343895.553281771       10976.956427973            
       11815.864101935      328867.811875144       10935.679072598            
       11831.632842505      349478.368375031       11067.044740565            
       11847.422627087      341169.061209468       11064.001087968            
       11863.233483764      337596.772019987       11079.672087872            
       11879.065440658      341964.644487911       11131.902374155            
       11894.918525928      330612.909042191       11112.711924788            
       11910.792767771      347979.784034355       11227.201175160            
       11926.688194421      347979.270172009       11268.179010949            
       11942.604834151      335470.113343675       11245.815477769            
       11958.542715269      333339.249083796       11269.851218846            
       11974.501866123      333477.290575523       11311.770122660            
       11990.482315098      342048.436602553       11386.696835089            
       12006.484090619      333909.262900524       11387.684339579            
       12022.507221145      344263.838384532       11470.929887681            
       12038.551735176      338257.854806742       11473.433622856            
       12054.617661249      349292.204518620       11555.346132471            
       12070.705027940      350862.493070993       11590.529787645            
       12086.813863861      337691.927955505       11542.740274473            
       12102.944197664      332023.997707624       11532.738025036            
       12119.096058040      344200.748522789       11622.888694303            
       12135.269473715      341667.064473942       11630.810891441            
       12151.464473457      348010.449963557       11678.474618599            
       12167.681086070      345661.733812608       11692.056307799            
       12183.919340398      334492.610796962       11654.033455526            
       12200.179265322      345258.792659645       11713.031503830            
       12216.460889762      330341.312612081       11653.352111582            
       12232.764242677      332075.421666922       11690.459036476            
       12249.089353066      357794.618188964       11825.487305282            
       12265.436249963      344319.936139841       11775.487645585            
       12281.804962445      361101.282448945       11875.274270413            
       12298.195519624      350985.206449518       11833.996635444            
       12314.607950654      357578.646289677       11885.323062077            
       12331.042284726      357577.251587873       11902.273534334            
       12347.498551070      346118.022212389       11875.622222111            
       12363.976778956      350242.177649157       11916.124045881            
       12380.476997693      364927.981925608       12017.197895411            
       12396.999236628      342399.111897606       11928.165416170            
       12413.543525147      332493.827907878       11899.356346044            
       12430.109892678      339745.006795740       11948.156687685            
       12446.698368685      349671.766523740       12023.586551096            
       12463.308982673      343711.401055061       12025.866433782            
       12479.941764186      351446.129124308       12078.920276932            
       12496.596742807      360806.393420790       12157.619264127            
       12513.273948160      338096.981964328       12077.548323669            
       12529.973409906      359590.454453243       12208.405618183            
       12546.695157749      353268.785213728       12194.891894043            
       12563.439221429      358127.273321304       12245.620342966            
       12580.205630727      368691.751776756       12323.479017792            
       12596.994415466      366637.778883288       12333.301029636            
       12613.805605506      355495.568733541       12309.627539239            
       12630.639230748      346684.464187190       12293.791122939            
       12647.495321131      363012.668462573       12396.797228437            
       12664.373906638      362691.871094042       12417.212850877            
       12681.275017289      351594.348361422       12372.309004349            
       12698.198683144      338562.869539583       12327.225102030            
       12715.144934304      366419.292421180       12490.252805641            
       12732.113800910      343672.363409197       12393.438839665            
       12749.105313143      349349.738945307       12448.309108750            
       12766.119501225      348774.075840193       12472.513826831            
       12783.156395418      356855.828473601       12538.161890879            
       12800.216026024      358248.959906436       12566.157414162            
       12817.298423386      364341.255007609       12626.556691087            
       12834.403617886      373150.095962306       12694.614959402            
       12851.531639948      358614.170759264       12634.463211629            
       12868.682520037      361385.288015259       12643.766989593            
       12885.856288658      374335.986018830       12697.331214635            
       12903.052976355      370702.022942890       12673.586785976            
       12920.272613717      356392.492306503       12579.585717830            
       12937.515231369      356677.232591222       12569.910960174            
       12954.780859981      358383.248673349       12570.024945710            
       12972.069530260      370029.772235371       12631.719376876            
       12989.381272958      353103.559040918       12522.492639626            
       13006.716118864      373788.368345121       12878.600794500            
       13024.074098812      359216.502669940       13187.731688147            
