{"redRecord": "/SNS/SNAP/IPTS-30264/shared/SNAPRed/04bd2c53f6bf6754/lite/59062/None/ReductionRecord.json"
"attenuationMethod": null
"backgroundMethod": null}
# Total flight path 15.5806m, tth 85.3035deg, DIFC 5218.45
# Data for spectrum :0
BANK 1 863 863 SLOG       4123      13024  0.0013345 0 FXYE
        4125.524418352      120083.078265271       13928.080555461            
        4131.030094763       95992.827462247       13146.600324210            
        4136.543118719      122012.914559508       13071.761306822            
        4142.063500025      124475.123139241       12973.402464633            
        4147.591248499      131399.698872523       12930.158023872            
        4153.126373973      106402.282718544       12516.344873586            
        4158.668886292      103843.985864116       12381.451542143            
        4164.218795314      125765.688625787       12525.834128873            
        4169.776110911       97725.736176304       12125.191739596            
        4175.340842966      119246.700543172       12273.628642460            
        4180.913001378      133991.562872875       12339.372194826            
        4186.492596056      124915.505396159       12145.839210389            
        4192.079636926      116226.498384365       11962.532286263            
        4197.674133923      122018.920920876       11945.720461351            
        4203.276097000      117452.073318774       11804.443778707            
        4208.885536119      115339.470578782       11711.831058338            
        4214.502461258      118328.199279651       11665.992847589            
        4220.126882406      124007.219730737       11664.239089064            
        4225.758809568      147122.527778801       11862.154117186            
        4231.398252762      127110.119194127       11617.896616479            
        4237.045222016      122747.283166928       11543.240923102            
        4242.699727375      133014.726459350       11586.575170451            
        4248.361778897      127946.673743482       11451.812363722            
        4254.031386652       96989.433418484       11050.233568989            
        4259.708560723      117505.210386703       11182.931954401            
        4265.393311209      116509.287058524       11102.285422070            
        4271.085648221      127464.978395980       11129.622790389            
        4276.785581883      117294.151072551       10979.962053153            
        4282.493122333       96945.271495923       10717.346034388            
        4288.208279723      108472.759695183       10745.084718767            
        4293.931064218      102308.364080222       10606.544505697            
        4299.661485996      112145.454212345       10630.697126594            
        4305.399555250      115214.444204702       10600.199597407            
        4311.145282186      137393.138999797       10751.123473866            
        4316.898677022      107434.273505086       10455.127501646            
        4322.659749993      115289.859042514       10447.205997064            
        4328.428511345      121883.767408633       10469.463078924            
        4334.204971339      108353.550930109       10302.616074538            
        4339.989140248      120611.353151937       10347.114051310            
        4345.781028360      120967.836502600       10275.977718559            
        4351.580645978      118070.872018678       10187.677480411            
        4357.388003415      121444.418631931       10137.774494110            
        4363.203111003      140351.716575322       10214.065043386            
        4369.025979082      121434.242296590        9983.977900399            
        4374.856618011      125289.165626621        9945.332602941            
        4380.695038159      132627.779744522        9945.831989176            
        4386.541249911      121652.767785640        9810.543891909            
        4392.395263665      120287.046365590        9751.814921058            
        4398.257089834      116665.572233625        9678.182350273            
        4404.126738842      126086.573449108        9709.041781372            
        4410.004221131      130242.748505204        9706.348903067            
        4415.889547153      130831.049048214        9645.632521513            
        4421.782727377      119700.177521420        9499.678773829            
        4427.683772285      115120.299840594        9424.520437839            
        4433.592692371      126111.314179308        9468.099366043            
        4439.509498147      124415.380541349        9404.382292363            
        4445.434200135      125109.633397567        9363.803927149            
        4451.366808873      121257.435299882        9287.723303364            
        4457.307334914      117662.306404030        9214.019207617            
        4463.255788823      123778.854629812        9211.257473492            
        4469.212181181      114960.936140132        9097.585821274            
        4475.176522580      129845.679776581        9158.980788898            
        4481.148823631      118545.090634947        9030.205437794            
        4487.129094955      121090.231928594        8973.928122539            
        4493.117347189      124738.418585356        8973.355004997            
        4499.113590984      127458.345377755        8952.709166535            
        4505.117837004      126438.182753303        8908.518062593            
        4511.130095930      132218.080405931        8904.237506946            
        4517.150378454      117108.862082537        8773.240481272            
        4523.178695284      135855.163444054        8853.583474906            
        4529.215057144      130351.195858815        8755.635645045            
        4535.259474768      141064.081726997        8801.480100670            
        4541.311958908      139773.158789390        8757.075087025            
        4547.372520328      129970.164758215        8654.430469545            
        4553.441169809      126118.040941849        8612.621013574            
        4559.517918144      120983.674827201        8556.453141625            
        4565.602776142      111449.645332753        8477.067964205            
        4571.695754624      131686.330278576        8625.484244472            
        4577.796864429      125228.603757322        8573.483591142            
        4583.906116407      123470.900020199        8544.762495409            
        4590.023521425      123761.683362835        8534.209982396            
        4596.149090363      123339.302564289        8495.833630295            
        4602.282834116      124529.061190758        8459.223219240            
        4608.424763595      115608.722804525        8349.786542309            
        4614.574889723      125665.901948829        8392.530488876            
        4620.733223438      129655.920675678        8384.359582329            
        4626.899775695      135662.495768789        8393.142485696            
        4633.074557461      125716.505563529        8292.629738442            
        4639.257579719      116180.934111931        8200.763571124            
        4645.448853466      131309.986566086        8270.777165257            
        4651.648389714      128249.445004986        8238.555943344            
        4657.856199490      113014.710246424        8110.878058928            
        4664.072293835      125765.809649962        8184.792596155            
        4670.296683805      119242.320483245        8115.347914900            
        4676.529380471      118082.824432795        8091.888008812            
        4682.770394918      128270.873108874        8135.913742519            
        4689.019738248      124826.580581800        8097.399284708            
        4695.277421574      121250.478098776        8055.424111391            
        4701.543456028      116435.250063283        8002.811910522            
        4707.817852754      116443.873852786        7979.692930758            
        4714.100622912      115502.827026923        7957.095675462            
        4720.391777677      121548.063480490        7986.787086108            
        4726.691328238      131990.150437970        8039.489203842            
        4732.999285800      132000.034017036        8030.386607293            
        4739.315661582      110046.268570100        7889.076475286            
        4745.640466819      124217.294277474        7984.984068861            
        4751.973712759      123840.542004768        7978.286636892            
        4758.315410669      114129.836906026        7918.981076497            
        4764.665571826      115170.073271654        7920.344738746            
        4771.024207526      123289.278901128        7951.425971132            
        4777.391329079      127133.812725949        7949.954678096            
        4783.766947808      121141.666217091        7888.163123193            
        4790.151075054      112456.430605651        7805.435671365            
        4796.543722172      123521.751794126        7873.097266767            
        4802.944900531      120329.052306103        7850.950326331            
        4809.354621518      131992.941592495        7924.943707120            
        4815.772896532      129450.589167938        7906.136204018            
        4822.199736990      125567.057390842        7878.528457140            
        4828.635154321      133151.287608976        7917.150573053            
        4835.079159973      126147.628782649        7861.927855998            
        4841.531765407      121368.084550875        7830.281422646            
        4847.992982100      124580.857274006        7846.833348626            
        4854.462821543      135453.460316061        7910.463709511            
        4860.941295244      131133.856792961        7871.424526619            
        4867.428414726      135299.505896199        7887.618428526            
        4873.924191527      142603.464931713        7920.144543934            
        4880.428637200      130659.830667940        7835.498827677            
        4886.941763315      133153.177239434        7839.990630393            
        4893.463581455      135910.203864859        7848.734504129            
        4899.994103222      133685.071573718        7834.551776085            
        4906.533340229      125078.375042594        7778.613058175            
        4913.081304108      135397.216676041        7845.554941404            
        4919.638006506      124831.178475563        7789.521229715            
        4926.203459083      138028.506168148        7883.749940954            
        4932.777673518      133672.580386834        7867.603377053            
        4939.360661504      132391.136500722        7878.435125700            
        4945.952434749      132915.472169539        7893.000405187            
        4952.553004978      131967.515310988        7906.312873117            
        4959.162383930      131289.935126848        7910.853613353            
        4965.780583361      129975.063146740        7911.848001098            
        4972.407615042      128961.714435005        7920.841279775            
        4979.043490761      132606.449529232        7951.369933330            
        4985.688222320      131669.804342947        7943.514108710            
        4992.341821538      138268.580077848        7991.537488299            
        4999.004300248      129674.458967367        7948.800855373            
        5005.675670301      138936.074453525        8013.197330005            
        5012.355943562      128542.005876081        7958.795622097            
        5019.045131914      129525.404648728        7975.818341180            
        5025.743247254      146145.427906584        8098.542417028            
        5032.450301496      142467.084129958        8088.019562459            
        5039.166306567      127254.549638098        8006.402537186            
        5045.891274415      124014.332263287        8002.638470232            
        5052.625217000      140461.545786273        8129.600541802            
        5059.368146299      128769.937374221        8082.353021791            
        5066.120074305      127146.532677711        8109.295198221            
        5072.881013028      129520.779228666        8148.721935512            
        5079.650974492      138369.107601096        8236.668871295            
        5086.429970739      131054.250555352        8212.698923449            
        5093.218013827      133358.082733607        8241.618219026            
        5100.015115827      147001.588026766        8333.478118792            
        5106.821288831      150962.531488880        8377.510019997            
        5113.636544943      130104.742771968        8253.302110589            
        5120.460896286      135625.133225148        8321.580563378            
        5127.294354997      143966.976815611        8413.012647762            
        5134.136933230      136407.081877844        8384.076391721            
        5140.988643156      125351.811339631        8330.640518375            
        5147.849496961      144978.478114635        8486.605673285            
        5154.719506849      139682.664998285        8451.902734577            
        5161.598685038      125351.892522347        8367.779767877            
        5168.487043764      131379.502553320        8424.219682927            
        5175.384595279      142453.274711921        8499.299089312            
        5182.291351850      143751.591940483        8512.067396556            
        5189.207325763      146893.519554402        8539.533107795            
        5196.132529318      132139.053549878        8449.986662323            
        5203.066974833      143833.771075679        8541.970628476            
        5210.010674641      144491.610830001        8570.422880771            
        5216.963641092      143870.775598430        8581.594052313            
        5223.925886554      157568.517153861        8703.479056389            
        5230.897423409      141998.420113142        8614.243490721            
        5237.878264058      143559.903954850        8641.742272770            
        5244.868420916      151953.588525238        8732.234733801            
        5251.867906416      137717.236753954        8675.616517168            
        5258.876733008      151155.406321264        8792.853273446            
        5265.894913158      147835.391765890        8797.978149658            
        5272.922459348      149203.840761197        8837.633808057            
        5279.959384078      144839.950031405        8828.594928309            
        5287.005699865      145606.415710109        8844.230647331            
        5294.061419239      137248.396385084        8803.982570308            
        5301.126554752      143134.301749383        8857.124125798            
        5308.201118970      143069.715510707        8862.844818923            
        5315.285124474      138314.850478619        8823.560823584            
        5322.378583866      141106.790842633        8849.217646924            
        5329.481509761      135055.299544320        8798.959734227            
        5336.593914794      155854.661628617        8926.520614858            
        5343.715811614      147253.990409876        8866.509056206            
        5350.847212888      144229.744385341        8845.685013055            
        5357.988131301      149026.280576906        8872.958230232            
        5365.138579553      146602.633703632        8852.923829292            
        5372.298570364      142698.567166100        8823.267493257            
        5379.468116466      139630.674773181        8801.068859494            
        5386.647230613      151376.884440988        8879.811772622            
        5393.835925574      134725.055451372        8757.040941457            
        5401.034214134      142629.453258004        8821.282838040            
        5408.242109096      145577.346605104        8847.740231516            
        5415.459623280      147773.302876002        8855.120290849            
        5422.686769525      142092.916653647        8817.054761055            
        5429.923560683      146893.634742687        8855.271532952            
        5437.170009627      153359.088734703        8901.348726389            
        5444.426129246      137810.950908402        8814.445604580            
        5451.691932444      145339.004190278        8887.120985488            
        5458.967432146      143763.625020359        8902.871402307            
        5466.252641292      145727.000118784        8935.486290808            
        5473.547572839      144494.872632556        8951.436664591            
        5480.852239762      153347.210547377        9024.903244250            
        5488.166655054      154029.034457548        9052.367920270            
        5495.490831723      149579.869008228        9045.072161641            
        5502.824782798      164470.617390902        9165.807937085            
        5510.168521323      163949.960101537        9184.549881992            
        5517.522060358      141368.186210087        9056.550565767            
        5524.885412984      158626.362981334        9202.276426569            
        5532.258592296      167540.843903347        9299.960056452            
        5539.641611410      159122.938820336        9286.804672488            
        5547.034483456      155628.869284878        9299.257555551            
        5554.437221585      169085.609143816        9429.296381263            
        5561.849838961      158916.093940786        9398.913255912            
        5569.272348770      163194.092558971        9451.590629863            
        5576.704764214      161352.882820239        9464.037819362            
        5584.147098512      153809.580134969        9464.878131220            
        5591.599364901      166512.442311763        9601.442872871            
        5599.061576635      156126.566352692        9582.463591430            
        5606.533746988      147238.801142310        9560.943086923            
        5614.015889250      140233.032489554        9585.522442108            
        5621.508016728      152421.267695003        9730.291874269            
        5629.010142748      154588.879669748        9780.113584110            
        5636.522280654      143307.426911628        9751.136387727            
        5644.044443806      142868.434387571        9797.902197257            
        5651.576645585      148295.985491951        9866.062848718            
        5659.118899386      154531.841025479        9915.851707867            
        5666.671218625      149889.384382643        9902.703257411            
        5674.233616734      134505.651864593        9813.089187447            
        5681.806107164      146264.604085099        9913.721332317            
        5689.388703384      147862.773631862        9925.285044605            
        5696.981418880      146690.342623055        9931.677770851            
        5704.584267157      148535.274978925        9964.817477593            
        5712.197261737      145337.956984320        9942.570981581            
        5719.820416162      156870.605257704       10011.682200068            
        5727.453743989      152894.570493944        9961.124067180            
        5735.097258795      158570.336687455        9981.769645313            
        5742.750974177      135519.232534591        9800.391497513            
        5750.414903745      143737.617798499        9842.375407599            
        5758.089061133      152026.016743668        9883.960419390            
        5765.773459989      169497.050048663        9998.167250557            
        5773.468113980      147004.337465605        9834.259805575            
        5781.173036794      145770.575281307        9807.299882326            
        5788.888242133      158940.912892720        9864.056368045            
        5796.613743721      170307.329809315        9903.773342037            
        5804.349555298      166036.919125937        9837.224984159            
        5812.095690623      149466.921925469        9672.538251960            
        5819.852163474      146109.323230670        9611.224037884            
        5827.618987646      168907.620736079        9730.112844037            
        5835.396176954      167715.496455482        9689.628202621            
        5843.183745230      169790.051299008        9659.075173223            
        5850.981706326      149914.299378542        9492.775613174            
        5858.790074112      139987.629632623        9394.020770602            
        5866.608862474      175647.883940331        9574.856695601            
        5874.438085321      163095.220386119        9450.040023730            
        5882.277756577      150142.921122377        9325.127350687            
        5890.127890186      169865.173298942        9396.920893387            
        5897.988500110      163758.744641512        9297.713397302            
        5905.859600331      160704.607967098        9225.903121775            
        5913.741204848      175274.951748045        9279.346712260            
        5921.633327680      179010.871713215        9250.629993089            
        5929.535982864      189424.973542370        9272.769664276            
        5937.449184456      190200.307006992        9238.137536750            
        5945.372946529      192254.758793263        9211.700417046            
        5953.307283178      194307.432802488        9177.945278699            
        5961.252208516      216286.217206612        9271.561924556            
        5969.207736672      209880.953200099        9182.910902254            
        5977.173881796      209268.864096894        9117.798576595            
        5985.150658058      211747.743378654        9073.336856285            
        5993.138079646      201018.952939113        8948.161237043            
        6001.136160765      221775.438598664        9012.239746414            
        6009.144915641      218872.260650471        8956.421279146            
        6017.164358519      204998.946560365        8826.631883837            
        6025.194503663      195737.448623213        8725.892409138            
        6033.235365355      184433.195329792        8602.965251280            
        6041.286957897      176002.400875864        8505.126108506            
        6049.349295609      175558.691775413        8438.752507466            
        6057.422392831      167895.265861679        8340.575674499            
        6065.506263923      171236.700837172        8312.148682578            
        6073.600923262      166078.094415277        8231.435227293            
        6081.706385246      176684.605942636        8232.182432207            
        6089.822664291      179788.199940036        8191.650907041            
        6097.949774834      159094.482097466        8024.674734761            
        6106.087731328      164472.507222635        8003.136337186            
        6114.236548250      167349.061039781        7976.382191744            
        6122.396240091      174430.728654190        7982.471036064            
        6130.566821366      175744.909876550        7951.093557356            
        6138.748306607      172386.972520486        7900.713823766            
        6146.940710365      165296.372953339        7826.206873856            
        6155.144047212      177512.660752871        7868.191670380            
        6163.358331737      173804.485897138        7822.660390090            
        6171.583578553      170981.333230166        7795.958598275            
        6179.819802287      166906.222935012        7755.371425367            
        6188.067017589      163420.902921282        7709.440865008            
        6196.325239129      163287.738698058        7692.236667277            
        6204.594481593      154233.086912541        7613.620355350            
        6212.874759690      167691.320409516        7667.685452120            
        6221.166088148      166274.243545748        7635.718199613            
        6229.468481713      162382.715313522        7595.321720825            
        6237.781955153      158740.195894956        7552.385890184            
        6246.106523254      159838.490512437        7533.634245703            
        6254.442200821      165720.943940806        7534.693463316            
        6262.789002682      155445.366416863        7449.178931936            
        6271.146943683      170737.279462827        7509.652730025            
        6279.516038687      166331.288783653        7458.654253078            
        6287.896302582      168909.003871293        7457.805714178            
        6296.287750273      166847.420927333        7425.325152722            
        6304.690396684      169864.060786975        7424.211359581            
        6313.104256761      181387.196340252        7460.181564555            
        6321.529345468      165174.158416397        7345.474749766            
        6329.965677792      175914.598139218        7371.070125166            
        6338.413268737      171322.397223316        7322.001718198            
        6346.872133327      173699.363198312        7311.693210774            
        6355.342286609      167480.875298027        7255.927231684            
        6363.823743648      174845.024241228        7284.530925985            
        6372.316519528      160863.252539433        7207.515269682            
        6380.820629355      165600.760486543        7236.084484115            
        6389.336088256      174788.755271380        7285.089596643            
        6397.862911374      179569.468941199        7314.679910697            
        6406.401113877      174126.722175822        7282.660367431            
        6414.950710952      181142.618190822        7316.828678087            
        6423.511717803      185457.103885474        7333.212392800            
        6432.084149658      181905.612192282        7312.886961944            
        6440.668021765      181218.517324481        7315.550358485            
        6449.263349391      170359.281434048        7268.721462083            
        6457.870147823      170627.759241435        7283.792812940            
        6466.488432369      176315.175389597        7328.316767569            
        6475.118218360      176553.293565157        7349.262076247            
        6483.759521143      177874.209988204        7375.716070784            
        6492.412356088      189393.099987613        7449.650070701            
        6501.076738585      171323.159282131        7363.136177076            
        6509.752684046      173152.602794676        7381.603338244            
        6518.440207901      168024.743274719        7361.745007442            
        6527.139325602      171674.376673297        7385.629079419            
        6535.850052621      168133.540777842        7375.727720988            
        6544.572404452      175651.042337954        7431.922414571            
        6553.306396609      169426.784542549        7417.771297813            
        6562.052044625      158444.541119065        7382.640328982            
        6570.809364057      171012.109370867        7460.169778986            
        6579.578370479      180407.550288555        7530.502678556            
        6588.359079490      168703.909009114        7486.098536950            
        6597.151506705      171372.392235037        7514.041746997            
        6605.955667765      182673.367784995        7589.130953316            
        6614.771578328      183390.222192451        7616.407816506            
        6623.599254074      171619.045712171        7578.551766880            
        6632.438710704      177343.805710239        7628.697186358            
        6641.289963941      184100.853465301        7692.670142135            
        6650.153029527      177725.786536263        7674.194792276            
        6659.027923226      181566.358931132        7712.645962675            
        6667.914660825      169528.866113376        7655.753167898            
        6676.813258128      176156.909269494        7703.513490376            
        6685.723730963      183413.713113291        7765.221610952            
        6694.646095178      181844.886618953        7776.021317065            
        6703.580366644      186910.277308695        7830.758338880            
        6712.526561250      183634.438292296        7833.149491945            
        6721.484694908      188327.630725304        7879.073385853            
        6730.454783552      176867.737029493        7826.227072176            
        6739.436843136      180496.561618633        7866.447903395            
        6748.430889636      184087.664005128        7904.908106728            
        6757.436939049      174393.198317054        7869.974671293            
        6766.455007392      180014.407841970        7936.477267704            
        6775.485110707      184419.278674803        7986.865445689            
        6784.527265054      187650.411294444        8035.508401713            
        6793.581486515      184302.338204286        8044.671379217            
        6802.647791195      190725.817541720        8110.921019991            
        6811.726195219      177640.059851944        8062.785062069            
        6820.816714734      185075.184661974        8132.206003220            
        6829.919365909      194366.274001990        8205.908716317            
        6839.034164934      191774.829969452        8216.127094239            
        6848.161128021      192993.219768105        8242.573395606            
        6857.300271403      190665.622331034        8233.649580229            
        6866.451611335      182783.361047658        8191.736812918            
        6875.615164095      188995.083692021        8231.155441385            
        6884.790945980      184348.580454478        8196.166549779            
        6893.978973311      177606.772875864        8161.091148056            
        6903.179262430      181926.370721372        8199.328048216            
        6912.391829700      186260.664808085        8229.669598423            
        6921.616691508      171267.217374550        8165.171213592            
        6930.853864261      182998.675826386        8262.567702189            
        6940.103364388      198512.619641471        8372.623177713            
        6949.365208342      197236.918232799        8376.195904261            
        6958.639412594      203763.920786986        8435.967874965            
        6967.925993640      195440.627825829        8388.345984275            
        6977.224967999      184523.556976538        8325.386538233            
        6986.536352208      182467.977426589        8319.138764547            
        6995.860162830      187938.430695567        8374.478718619            
        7005.196416448      186508.926766038        8397.999273473            
        7014.545129668      193561.013154451        8468.838721400            
        7023.906319118      184790.551155061        8460.579316592            
        7033.280001447      183527.927526598        8497.983626787            
        7042.666193328      201406.696274664        8649.363835188            
        7052.064911455      189453.822562457        8614.279707147            
        7061.476172546      183509.797103265        8626.343415468            
        7070.899993339      190000.546757430        8708.350247769            
        7080.336390595      194552.405328714        8777.787049839            
        7089.785381099      201292.849471750        8867.978814509            
        7099.246981656      190047.857103703        8834.455113484            
        7108.721209096      191913.828103899        8889.256973772            
        7118.208080269      193311.446349327        8941.463323418            
        7127.707612048      199420.617040794        9017.949712072            
        7137.219821331      189962.772902901        9008.735841937            
        7146.744725036      180101.427881460        8989.159440153            
        7156.282340103      194874.779001072        9114.930836042            
        7165.832683497      192116.900890114        9125.619087593            
        7175.395772204      191289.784119765        9168.848234834            
        7184.971623233      195685.615457133        9235.461038013            
        7194.560253616      200471.985959531        9298.844934182            
        7204.161680408      206911.957058724        9389.219510408            
        7213.775920685      197737.569307198        9370.344880980            
        7223.402991549      227731.696890825        9605.242734634            
        7233.042910122      237805.261205575        9715.535959721            
        7242.695693549      245745.896170324        9816.192103038            
        7252.361359000      264234.775319510        9985.888853636            
        7262.039923665      259775.058598134       10005.811731818            
        7271.731404760      255382.371269958       10024.717435812            
        7281.435819523      273592.661707232       10170.207155450            
        7291.153185212      285920.863686607       10306.824764052            
        7300.883519113      286186.903721258       10350.815062657            
        7310.626838531      270147.526419563       10300.310263189            
        7320.383160796      254970.995240752       10263.888870114            
        7330.152503262      251528.779035543       10283.396773537            
        7339.934883303      289677.516999810       10556.220092648            
        7349.730318320      266406.964878257       10436.140934087            
        7359.538825734      251800.965681800       10389.580779443            
        7369.360422992      253054.937795783       10428.493764971            
        7379.195127562      246672.422755422       10439.799583478            
        7389.042956936      259994.733802345       10586.424904179            
        7398.903928630      249113.929660344       10578.715163504            
        7408.778060183      247503.892958375       10605.109996825            
        7418.665369157      232454.226007611       10554.456551757            
        7428.565873138      231596.452010835       10579.889822340            
        7438.479589736      223951.052358882       10556.265373065            
        7448.406536582      199910.573867247       10431.286232256            
        7458.346731334      205999.764514607       10492.642584284            
        7468.300191672      230283.533438149       10662.893159990            
        7478.266935298      198405.619641620       10477.610814089            
        7488.246979939      206399.246730394       10554.830446091            
        7498.240343348      203624.516600200       10550.669021669            
        7508.247043297      200974.287262978       10565.019398436            
        7518.267097585      206985.735102978       10617.695761970            
        7528.300524034      214490.373106782       10691.561515858            
        7538.347340490      213733.895216184       10721.261326989            
        7548.407564821      186050.626699006       10576.377040038            
        7558.481214923      210121.167834302       10774.517155214            
        7568.568308711      199068.006621288       10777.305870430            
        7578.668864127      199721.051748656       10842.614953484            
        7588.782899135      211340.977542712       10956.007991987            
        7598.910431726      191146.623430224       10861.561746489            
        7609.051479912      189982.813164026       10877.484507135            
        7619.206061730      218308.326720339       11083.447247092            
        7629.374195241      195358.566166385       10963.074029029            
        7639.555898531      212604.229096403       11112.263014340            
        7649.751189708      191058.116270411       11025.655042208            
        7659.960086908      213467.105473529       11202.333959356            
        7670.182608286      199424.945313917       11151.290321158            
        7680.418772026      180943.739436587       11065.309572324            
        7690.668596334      213480.197224136       11285.784475753            
        7700.932099440      217312.241649329       11310.022831407            
        7711.209299598      198708.293340261       11211.075295968            
        7721.500215090      201377.014941245       11217.485943728            
        7731.804864217      209888.252437621       11256.211856065            
        7742.123265308      194828.664895249       11150.002924856            
        7752.455436716      206189.465876917       11215.657397700            
        7762.801396817      206695.519079003       11204.422343922            
        7773.161164014      199883.991748563       11158.611257525            
        7783.534756732      197730.592257343       11139.196958089            
        7793.922193422      212875.381496737       11218.414805677            
        7804.323492560      212889.019587924       11206.375763327            
        7814.738672645      222424.702151354       11209.158034386            
        7825.167752202      219993.478555719       11142.433792953            
        7835.610749780      205351.761521600       10985.646666932            
        7846.067683954      215327.051213427       10991.836805748            
        7856.538573322      207887.700898468       10848.914584636            
        7867.023436509      219894.824746541       10843.458745937            
        7877.522292163      218786.017228039       10748.497001016            
        7888.035158957      215113.451763992       10641.383764634            
        7898.562055590      213880.939642925       10547.440434693            
        7909.103000785      213674.342851862       10457.279466873            
        7919.658013291      224319.804755127       10452.232280708            
        7930.227111881      227529.148474618       10387.306662069            
        7940.810315353      208529.387408124       10188.793238453            
        7951.407642531      211465.146037410       10125.176973087            
        7962.019112264      198186.327109282        9973.301598332            
        7972.644743425      211544.836459823        9976.340257638            
        7983.284554913      210547.202353143        9885.332042201            
        7993.938565653      216699.345191188        9839.467485688            
        8004.606794594      214482.402909632        9743.478795497            
        8015.289260711      202493.521533692        9589.389612651            
        8025.985983004      207280.257970708        9526.219862458            
        8036.696980498      209285.328825277        9449.380251734            
        8047.422272244      211801.585569271        9394.082049576            
        8058.161877319      208053.613891510        9295.516615592            
        8068.915814823      219841.699760365        9284.267367090            
        8079.684103885      222872.960009329        9232.235849155            
        8090.466763657      216202.676329758        9137.697318319            
        8101.263813318      216079.421332294        9082.061390885            
        8112.075272070      222626.250957635        9058.039141927            
        8122.901159144      225743.252524722        9032.546679215            
        8133.741493795      220029.826681761        8948.742533548            
        8144.596295304      210422.766026938        8862.430176936            
        8155.465582977      214749.663879269        8842.989676161            
        8166.349376147      217344.828287230        8817.193940127            
        8177.247694172      220134.195798861        8803.259017306            
        8188.160556435      216780.166020252        8760.967034661            
        8199.087982347      217446.573658023        8739.363711053            
        8210.029991344      208267.535435373        8665.400673620            
        8220.986602886      215491.457028067        8680.904855655            
        8231.957836463      230000.956829822        8733.476485432            
        8242.943711587      221388.746841146        8670.880818775            
        8253.944247799      217638.867287233        8625.291550497            
        8264.959464663      217825.964691079        8611.048388018            
        8275.989381773      225432.245466062        8646.204191280            
        8287.034018745      235603.445067724        8686.677494532            
        8298.093395225      224195.625531085        8632.570281506            
        8309.167530883      217925.575907896        8601.554479444            
        8320.256445415      224932.027891285        8649.644454407            
        8331.360158544      232299.058828811        8702.651073494            
        8342.478690021      236030.239023259        8743.838612655            
        8353.612059619      224000.402663774        8693.283352810            
        8364.760287143      235217.980812948        8777.655367490            
        8375.923392419      228789.191102323        8752.483387129            
        8387.101395303      239716.969155317        8814.175545892            
        8398.294315677      265168.093394830        8949.690122675            
        8409.502173448      286397.308925875        9060.696634522            
        8420.724988551      291252.338677301        9082.814412768            
        8431.962780947      302555.464360263        9142.856086521            
        8443.215570624      310136.268029447        9174.443304092            
        8454.483377596      333319.601337910        9281.558650398            
        8465.766221905      342582.091494431        9330.782721988            
        8477.064123618      332349.703958789        9297.951737428            
        8488.377102831      327951.656085118        9289.340907967            
        8499.705179664      310017.437806243        9217.940870746            
        8511.048374266      275932.383429563        9065.697169052            
        8522.406706812      280230.008463878        9091.540617758            
        8533.780197505      271829.234939987        9053.198052153            
        8545.168866574      253751.335992616        8965.780922061            
        8556.572734275      252902.901538458        8962.876937286            
        8567.991820890      239949.575187475        8905.315019914            
        8579.426146731      238142.715017034        8901.182855413            
        8590.875732134      241903.854501574        8927.436067001            
        8602.340597465      219566.923367208        8814.057889498            
        8613.820763114      234079.872561600        8887.048860061            
        8625.316249501      240842.597542570        8924.421527807            
        8636.827077071      232800.967191586        8891.772686204            
        8648.353266299      230102.992690259        8880.805253238            
        8659.894837684      227757.958542489        8874.909514103            
        8671.451811756      225504.355954510        8878.716065277            
        8683.024209069      221831.040035852        8859.841745545            
        8694.612050207      234837.125922749        8922.455962648            
        8706.215355780      233641.336222986        8915.212741493            
        8717.834146425      238897.746927989        8933.769107211            
        8729.468442808      244272.136262275        8947.730166737            
        8741.118265623      223834.906293469        8841.189426013            
        8752.783635590      229201.629824554        8858.916447644            
        8764.464573457      244295.673187808        8925.808652634            
        8776.161099999      239491.815987575        8903.739292297            
        8787.873236022      239422.636090570        8905.527088108            
        8799.601002356      238774.538804200        8893.307939349            
        8811.344419861      240577.583704173        8910.473791441            
        8823.103509423      222206.601656443        8816.083727664            
        8834.878291958      240924.585631968        8901.812475131            
        8846.668788409      232008.982584981        8854.568471614            
        8858.475019746      230675.149140342        8853.364035711            
        8870.297006968      241524.008110657        8896.942615211            
        8882.134771103      244599.764498454        8910.208948170            
        8893.988333204      237332.033924271        8876.031077833            
        8905.857714356      248634.304195933        8925.665226553            
        8917.742935669      238255.564940792        8865.986345492            
        8929.644018282      227897.396758683        8809.775971475            
        8941.560983363      236551.993049812        8844.454947538            
        8953.493852109      244541.737356331        8882.464554629            
        8965.442645742      235319.234459085        8836.487129737            
        8977.407385515      244369.407605329        8886.833810896            
        8989.388092710      230459.954927657        8817.855987335            
        9001.384788634      247667.719926230        8900.741381688            
        9013.397494627      236563.926748255        8840.782579584            
        9025.426232053      237439.013726021        8841.951853885            
        9037.471022308      241992.219680832        8856.101012167            
        9049.531886815      243082.730260623        8857.017010416            
        9061.608847025      247651.785009886        8874.906459855            
        9073.701924418      253585.365047768        8898.845251560            
        9085.811140505      250565.935383776        8879.739709201            
        9097.936516822      249805.157497326        8863.181635637            
        9110.078074935      241445.431838928        8818.517979630            
        9122.235836441      236000.246469368        8795.788896534            
        9134.409822963      248019.509102539        8850.039359698            
        9146.600056155      251561.907736080        8867.638289855            
        9158.806557697      244091.678080621        8835.113600148            
        9171.029349301      234724.259407422        8791.502042400            
        9183.268452707      245079.684816665        8834.844591594            
        9195.523889683      249404.410181414        8858.148888390            
        9207.795682027      252892.063241280        8869.962910306            
        9220.083851566      257828.036490299        8885.013367578            
        9232.388420156      239895.534585119        8794.081344804            
        9244.709409682      235085.154536347        8758.130205356            
        9257.046842058      236786.898905231        8743.567040944            
        9269.400739229      242902.458901644        8759.020947489            
        9281.771123167      241433.438023498        8741.971249687            
        9294.158015874      252139.445000729        8777.725109877            
        9306.561439382      246546.601741613        8736.993321716            
        9318.981415752      248307.911173521        8742.202745606            
        9331.417967075      241049.532141902        8703.371794128            
        9343.871115470      246160.207669106        8728.369816842            
        9356.340883086      259200.386231081        8789.639534818            
        9368.827292104      253949.893748881        8765.889567934            
        9381.330364731      248942.596362910        8739.745330739            
        9393.850123205      252631.413007560        8750.281657969            
        9406.386589796      240431.340780304        8692.402575750            
        9418.939786799      251397.034112075        8746.617848717            
        9431.509736543      244855.954714216        8726.223128132            
        9444.096461385      250086.374512143        8759.316246929            
        9456.699983712      255895.008247949        8794.082490549            
        9469.320325941      251544.562750347        8782.414063983            
        9481.957510518      242402.570802456        8739.493590309            
        9494.611559921      266920.357792445        8847.123007469            
        9507.282496655      248913.838729832        8753.898567673            
        9519.970343259      252479.492041379        8760.544969482            
        9532.675122299      248954.450645116        8730.638703381            
        9545.396856372      258201.841836777        8761.089427175            
        9558.135568104      266530.799125599        8784.526894331            
        9570.891280155      262001.941640746        8755.578561058            
        9583.664015210      253830.273581007        8710.194933817            
        9596.453795988      260695.096567526        8722.195406207            
        9609.260645237      257243.308641011        8696.559024514            
        9622.084585736      255404.892152599        8671.129536625            
        9634.925640294      251311.702887065        8645.685114297            
        9647.783831749      256941.356989991        8662.731253796            
        9660.659182972      265397.519210885        8698.536527236            
        9673.551716864      277204.747893625        8749.521927448            
        9686.461456355      254745.729631186        8648.821022509            
        9699.388424407      260310.957357738        8665.959541621            
        9712.332644011      252809.521144804        8623.169162573            
        9725.294138192      250494.290223119        8611.376481614            
        9738.272930002      253060.362077012        8620.124542435            
        9751.269042526      250822.736590137        8611.547314570            
        9764.282498879      262178.260973360        8669.068759188            
        9777.313322206      264554.215786458        8692.631128684            
        9790.361535686      267171.615348821        8713.592657541            
        9803.427162526      267370.067739506        8727.986419312            
        9816.510225964      264434.007707562        8726.677733588            
        9829.610749271      265824.554681272        8743.820472056            
        9842.728755748      270754.497527199        8775.492795440            
        9855.864268725      255696.806073519        8716.820094206            
        9869.017311567      265785.927148846        8758.186356429            
        9882.187907668      283008.694577396        8827.555348714            
        9895.376080453      257962.574018140        8718.175630096            
        9908.581853379      262760.892383244        8741.579051698            
        9921.805249935      266352.745177034        8753.638639254            
        9935.046293639      270221.371341340        8779.597799996            
        9948.305008042      262479.443093225        8754.334097720            
        9961.581416727      270521.254303482        8780.841311196            
        9974.875543308      267204.914492051        8756.980413706            
        9988.187411429      267312.188089000        8738.539280757            
       10001.517044768      272312.861265339        8746.176116323            
       10014.864467032      266268.870429391        8705.118681387            
       10028.229701962      274516.841776747        8731.159274456            
       10041.612773330      272458.869462305        8710.282653935            
       10055.013704939      264069.184221597        8675.967918693            
       10068.432520624      275709.344384833        8715.094877664            
       10081.869244252      281577.052932018        8725.505979203            
       10095.323899722      286210.516224494        8730.580387693            
       10108.796510966      277988.009785323        8677.743757932            
       10122.287101944      266793.089957139        8592.891514228            
       10135.795696653      278792.365929146        8631.644608341            
       10149.322319119      258265.101035805        8527.523190402            
       10162.866993400      279506.734993056        8606.463786759            
       10176.429743588      293796.555435956        8648.833191011            
       10190.010593805      281172.076004784        8587.704645016            
       10203.609568208      286425.676934282        8580.302396852            
       10217.226690982      299185.313655756        8611.360408867            
       10230.861986348      310074.102687758        8632.118735132            
       10244.515478558      324063.704684377        8672.363032229            
       10258.187191897      340004.112443284        8715.528447447            
       10271.877150681      346891.121661995        8731.623614249            
       10285.585379259      372426.682590040        8826.373023294            
       10299.311902013      402919.629854729        8943.134604321            
       10313.056743358      425341.378239009        9022.552761883            
       10326.819927741      451538.090043835        9123.099587887            
       10340.601479640      482993.847513875        9244.396083888            
       10354.401423568      501419.735498285        9305.430547683            
       10368.219784071      506892.158609139        9310.910888717            
       10382.056585725      495533.111477839        9264.192955543            
       10395.911853141      483857.433380272        9213.924926650            
       10409.785610962      441317.027663764        9035.516341064            
       10423.677883866      408392.885073721        8894.853272833            
       10437.588696559      393915.712536002        8828.365107771            
       10451.518073786      366133.683003997        8698.033978194            
       10465.466040321      348160.921896716        8612.698646612            
       10479.432620971      331744.805523335        8522.102163008            
       10493.417840579      319920.904539046        8457.193669677            
       10507.421724019      290922.959585491        8323.592276349            
       10521.444296198      306353.193040516        8370.171823912            
       10535.485582057      295604.465155309        8299.413907780            
       10549.545606571      288536.485562327        8261.435486877            
       10563.624394747      285471.525872908        8232.028204315            
       10577.721971625      301512.468198787        8278.586156532            
       10591.838362281      289094.710281930        8216.781194363            
       10605.973591821      278753.553596345        8170.876877019            
       10620.127685387      289003.670647940        8195.729307690            
       10634.300668154      293832.223305883        8208.900894660            
       10648.492565330      279391.556374758        8154.950145612            
       10662.703402157      286630.371424671        8192.070525153            
       10676.933203912      292209.006053907        8220.023161733            
       10691.181995902      287664.986080718        8221.487545418            
       10705.449803472      277510.019723209        8196.537775912            
       10719.736651999      285520.310977212        8247.790031213            
       10734.042566894      289320.926014403        8288.178890604            
       10748.367573601      284448.834177155        8292.603660537            
       10762.711697599      288862.853659409        8339.321567985            
       10777.074964400      284092.857346589        8341.824097404            
       10791.457399553      286096.421445693        8382.781787723            
       10805.859028638      292115.067591094        8438.963236137            
       10820.279877269      287683.533708779        8447.397566072            
       10834.719971096      284767.276843630        8465.332795732            
       10849.179335803      285317.731973796        8496.056605279            
       10863.657997107      283026.928605973        8514.263854665            
       10878.155980760      283813.178025434        8549.682200912            
       10892.673312549      294521.929413381        8632.431533247            
       10907.210018295      293377.160877776        8659.547158918            
       10921.766123853      284668.772591722        8656.609967540            
       10936.341655112      296397.202770397        8742.382744186            
       10950.936637998      291825.090069980        8750.012188660            
       10965.551098468      293278.142236574        8792.578792489            
       10980.185062518      284665.390806788        8790.043522864            
       10994.838556174      295350.945481567        8862.729778662            
       11009.511605501      312462.237995233        8977.319212900            
       11024.204236595      310913.636228876        9001.374000793            
       11038.916475590      300658.430842636        8987.697169317            
       11053.648348653      310277.800520388        9059.946494542            
       11068.399881987      321451.555827393        9157.537450409            
       11083.171101828      319552.378632967        9184.398359058            
       11097.962034450      348506.225252099        9355.816599938            
       11112.772706160      367179.487423184        9469.653699555            
       11127.603143300      375748.908960356        9549.352287900            
       11142.453372248      365791.301070256        9551.612928104            
       11157.323419418      378227.545502751        9646.416196738            
       11172.213311256      361663.172057427        9630.577457597            
       11187.123074248      359756.234748445        9691.868575423            
       11202.052734911      346277.798239236        9698.649645959            
       11217.002319800      336775.674043411        9725.111001730            
       11231.971855505      325205.782162196        9738.858175543            
       11246.961368650      310345.850123518        9743.061870927            
       11261.970885897      308687.401562496        9783.419262022            
       11277.000433942      299721.132836358        9780.807854537            
       11292.050039516      298260.488829421        9805.991434764            
       11307.119729388      290645.500088725        9803.270883574            
       11322.209530360      287849.783097463        9801.911585754            
       11337.319469271      292773.332379761        9848.195496355            
       11352.449572997      302946.621925073        9930.537381214            
       11367.599868448      308322.055860571        9973.012305391            
       11382.770382571      297028.981763583        9944.783500421            
       11397.961142348      280814.353639640        9896.277186827            
       11413.172174798      293403.814634077        9968.988839536            
       11428.403506976      299506.508497142       10025.962138106            
       11443.655165973      285671.367819146        9996.830554864            
       11458.927178915      304620.266024701       10121.108134588            
       11474.219572966      299964.623692531       10134.496197160            
       11489.532375325      291163.356044909       10146.504565670            
       11504.865613227      305199.293322750       10241.498003347            
       11520.219313945      296888.597534014       10239.271506491            
       11535.593504788      290835.454780964       10247.184416491            
       11550.988213100      311925.370311935       10379.626743981            
       11566.403466262      323480.004162632       10467.381774463            
       11581.839291693      324653.929086490       10503.593325995            
       11597.295716846      320120.105616112       10513.634037381            
       11612.772769214      321977.109989976       10550.246923152            
       11628.270476324      316644.874806015       10552.173068117            
       11643.788865740      337530.692923127       10688.682272072            
       11659.327965064      332626.974143012       10702.930255056            
       11674.887801934      313664.412301055       10659.879587523            
       11690.468404025      309409.876867334       10683.326515458            
       11706.069799049      334345.749430892       10846.157847104            
       11721.692014755      321482.686594077       10827.535041230            
       11737.335078930      310961.569253564       10828.588890488            
       11752.999019396      320226.304986932       10916.904342692            
       11768.683864013      338022.400263377       11043.214366820            
       11784.389640679      325958.843230049       11033.946853713            
       11800.116377329      319599.652596095       11042.065042697            
       11815.864101935      329094.959071984       11117.755891059            
       11831.632842505      324772.835811886       11131.580130625            
       11847.422627087      331496.862069164       11200.920674789            
       11863.233483764      340864.371279276       11279.240984444            
       11879.065440658      325490.602537285       11236.423401053            
       11894.918525928      336302.881745945       11324.467270660            
       11910.792767771      318169.570041179       11267.833507348            
       11926.688194421      327302.992640016       11354.167899613            
       11942.604834151      344420.672180322       11475.615709013            
       11958.542715269      317492.809756017       11378.347483030            
       11974.501866123      328554.117015398       11474.631706601            
       11990.482315098      313432.450898361       11433.974827830            
       12006.484090619      316413.830873843       11489.630239079            
       12022.507221145      330975.973967612       11595.414582475            
       12038.551735176      345159.099130222       11697.389738971            
       12054.617661249      334371.061381293       11673.224562930            
       12070.705027940      310685.990211528       11583.050354528            
       12086.813863861      331653.334628535       11703.803317815            
       12102.944197664      327833.518825242       11702.490961108            
       12119.096058040      325807.904023259       11723.716760768            
       12135.269473715      325171.207547350       11740.845505235            
       12151.464473457      332878.008160530       11796.374174537            
       12167.681086070      333613.505925342       11825.279549919            
       12183.919340398      324211.065436949       11794.986100619            
       12200.179265322      332085.601109001       11840.641980074            
       12216.460889762      325252.419604591       11820.206069159            
       12232.764242677      330091.829132074       11873.540378948            
       12249.089353066      340461.184019808       11934.331956448            
       12265.436249963      332590.440026291       11911.059445235            
       12281.804962445      329739.416379866       11913.503167841            
       12298.195519624      316187.975855025       11852.615535379            
       12314.607950654      318978.755252112       11885.406515797            
       12331.042284726      336508.372232549       11992.281307904            
       12347.498551070      342967.838508824       12056.206060363            
       12363.976778956      341748.827555146       12070.017483169            
       12380.476997693      338666.957175075       12082.098878241            
       12396.999236628      331030.177687113       12067.000687907            
       12413.543525147      334401.603473342       12106.140701879            
       12430.109892678      350164.171756771       12200.149719581            
       12446.698368685      343087.208501602       12188.877499277            
       12463.308982673      345280.049957817       12233.397407502            
       12479.941764186      349216.148481358       12267.642172599            
       12496.596742807      347242.076462419       12288.882225997            
       12513.273948160      332664.088896609       12248.640950770            
       12529.973409906      328515.947955956       12247.866670377            
       12546.695157749      332914.373273153       12289.752435428            
       12563.439221429      330237.297240491       12301.852076625            
       12580.205630727      331570.609521855       12332.589870301            
       12596.994415466      349082.147468571       12445.764707777            
       12613.805605506      343279.509066779       12449.112736208            
       12630.639230748      350042.759351595       12515.124051298            
       12647.495321131      348075.149891121       12523.148753003            
       12664.373906638      351370.915348748       12562.903175351            
       12681.275017289      343509.779626573       12533.940046802            
       12698.198683144      334668.404879493       12509.973720243            
       12715.144934304      339371.195058592       12552.569048122            
       12732.113800910      346561.213363888       12613.909214124            
       12749.105313143      342483.330246488       12617.454957831            
       12766.119501225      357875.159383681       12727.834806779            
       12783.156395418      348266.974672381       12699.537677539            
       12800.216026024      332177.217904593       12633.355377751            
       12817.298423386      337625.376484898       12691.465603959            
       12834.403617886      354074.386535913       12802.535544583            
       12851.531639948      344944.836313765       12769.835248963            
       12868.682520037      343489.897214431       12756.302517066            
       12885.856288658      358662.143109507       12823.374530224            
       12903.052976355      346136.372195022       12750.207660093            
       12920.272613717      342458.950859207       12711.800642450            
       12937.515231369      344680.275086693       12712.423670324            
       12954.780859981      335897.157281872       12654.645687281            
       12972.069530260      342534.403331401       12690.576278793            
       12989.381272958      371066.559294742       12828.443783468            
       13006.716118864      351761.043616637       12966.003379254            
       13024.074098812      334146.176215602       13254.134010667            
