{"redRecord": "/SNS/SNAP/IPTS-30264/shared/SNAPRed/04bd2c53f6bf6754/lite/59056/None/ReductionRecord.json"
"attenuationMethod": null
"backgroundMethod": null}
# Total flight path 15.5806m, tth 85.3035deg, DIFC 5218.45
# Data for spectrum :0
BANK 1 863 863 SLOG       4123      13024  0.0013345 0 FXYE
        4125.524418352      104393.057881180       13231.860514291            
        4131.030094763       94536.033740914       12613.062792168            
        4136.543118719      100582.435794119       12293.137960854            
        4142.063500025      113991.076947025       12326.735327284            
        4147.591248499      108294.102039288       12146.271738935            
        4153.126373973      116144.165835837       12115.097922529            
        4158.668886292      103447.658325090       11874.310346594            
        4164.218795314      106815.474715863       11813.018352161            
        4169.776110911      110698.539415082       11770.086185713            
        4175.340842966      119305.487303415       11775.667702965            
        4180.913001378      103531.046638399       11522.695439289            
        4186.492596056      106369.146435657       11461.596003764            
        4192.079636926      108541.956185760       11398.809175161            
        4197.674133923      106920.485706635       11308.233787583            
        4203.276097000      121533.804723524       11365.025138446            
        4208.885536119      106091.199167583       11144.912323005            
        4214.502461258      103878.091778069       11050.748418305            
        4220.126882406      107643.042559556       11033.471051385            
        4225.758809568      109706.406559491       11024.013052104            
        4231.398252762      117097.061577981       11051.104437722            
        4237.045222016      111693.204963594       10971.598453810            
        4242.699727375      103682.457140984       10844.235324478            
        4248.361778897      124300.729700409       10952.505660068            
        4254.031386652      113441.415517575       10755.281416795            
        4259.708560723      106050.862956638       10624.661947211            
        4265.393311209      109796.750072042       10590.751389098            
        4271.085648221      110033.675149716       10520.484516842            
        4276.785581883      118842.543478760       10547.220435987            
        4282.493122333      110756.599466272       10406.880351977            
        4288.208279723      114386.167217485       10360.930213501            
        4293.931064218      117287.754297498       10308.139436013            
        4299.661485996      105115.400400110       10137.963296396            
        4305.399555250      120001.291406516       10210.654688908            
        4311.145282186      102232.209356367       10010.617747912            
        4316.898677022      108144.949856965       10035.691206427            
        4322.659749993      106622.755768511        9947.480477198            
        4328.428511345       93639.973769525        9803.313167140            
        4334.204971339       83661.685990217        9673.233250297            
        4339.989140248       96972.054077405        9726.746132456            
        4345.781028360       95758.779146715        9646.357130225            
        4351.580645978      102368.933752062        9641.701148591            
        4357.388003415      109118.547280027        9623.864767928            
        4363.203111003      107832.090949055        9532.714084514            
        4369.025979082      129447.809372723        9640.506754262            
        4374.856618011      111369.289375906        9427.683399216            
        4380.695038159      100757.868986443        9282.653495701            
        4386.541249911      102863.747697587        9259.134526045            
        4392.395263665      112499.880981617        9291.912216036            
        4398.257089834      117031.873124908        9287.061995939            
        4404.126738842      120896.030909138        9272.648035548            
        4410.004221131      114762.763606679        9189.746586014            
        4415.889547153      113613.176694458        9118.264087743            
        4421.782727377      121777.639123922        9129.224628043            
        4427.683772285      120082.878177870        9079.650723178            
        4433.592692371      117464.902717880        9016.152708553            
        4439.509498147      117096.519544249        8965.500648232            
        4445.434200135      126365.278175989        8991.695941247            
        4451.366808873      113736.483899559        8852.412232077            
        4457.307334914      113817.040864008        8809.860423644            
        4463.255788823      114973.120539118        8768.968131072            
        4469.212181181      117884.713434202        8748.938105422            
        4475.176522580      111730.174706104        8649.632823928            
        4481.148823631      116330.649322798        8645.178850549            
        4487.129094955      115695.263524733        8567.655305010            
        4493.117347189      118715.544965387        8562.599147255            
        4499.113590984      103829.829776609        8412.884871631            
        4505.117837004      128283.839288213        8558.098850709            
        4511.130095930      124460.177467594        8483.925605633            
        4517.150378454      109818.662267043        8362.692646797            
        4523.178695284      111140.038925949        8311.972205084            
        4529.215057144      118047.596331803        8308.652377010            
        4535.259474768      107813.074359965        8201.598828753            
        4541.311958908      120868.297325446        8263.274868131            
        4547.372520328      115681.995149249        8198.119142538            
        4553.441169809      119048.303017623        8210.512061772            
        4559.517918144      109643.107128727        8126.618559799            
        4565.602776142      119169.717529822        8185.579911476            
        4571.695754624      104144.912247867        8079.351025232            
        4577.796864429      106040.242251345        8088.759471893            
        4583.906116407      108657.724532402        8092.801252867            
        4590.023521425      111521.738730529        8101.111402632            
        4596.149090363      124939.811448538        8159.768789314            
        4602.282834116      115440.445363378        8051.488382529            
        4608.424763595      118069.893264315        8026.565874513            
        4614.574889723      111358.193234853        7952.072539124            
        4620.733223438      118126.369798172        7962.986308778            
        4626.899775695      111111.503783108        7883.425772501            
        4633.074557461      112353.604373618        7863.125537203            
        4639.257579719      115820.407474901        7863.371434773            
        4645.448853466      114189.822181899        7817.304028721            
        4651.648389714      111130.129610070        7787.151783065            
        4657.856199490      113542.927198771        7783.447131585            
        4664.072293835      120079.478413299        7812.249788376            
        4670.296683805      109144.155178190        7716.672506059            
        4676.529380471      115315.174669329        7742.980641829            
        4682.770394918      105923.802543983        7655.725111278            
        4689.019738248      111244.309633364        7677.122152051            
        4695.277421574      114509.458021132        7681.755657211            
        4701.543456028      115145.911161975        7667.753794327            
        4707.817852754      107094.515770925        7592.956033325            
        4714.100622912      117624.678419534        7646.017374627            
        4720.391777677      115713.756782791        7622.940919494            
        4726.691328238      116352.426900272        7610.299484014            
        4732.999285800      121393.769212471        7633.744576135            
        4739.315661582      110873.003146653        7572.573091139            
        4745.640466819      104409.797039043        7531.982989777            
        4751.973712759      107049.586721913        7545.255307935            
        4758.315410669      108615.177724946        7560.827453820            
        4764.665571826      120180.026237777        7628.881623097            
        4771.024207526      125104.968013573        7638.368740514            
        4777.391329079      123014.997477418        7599.735033762            
        4783.766947808      121585.483234558        7569.369856299            
        4790.151075054      118060.069375159        7523.065970161            
        4796.543722172      125613.308333575        7564.790436640            
        4802.944900531      121093.535446888        7535.691481267            
        4809.354621518      120197.479789722        7528.171504939            
        4815.772896532      134134.829856859        7611.931396560            
        4822.199736990      125443.338416181        7555.801096493            
        4828.635154321      107471.003720356        7434.529875353            
        4835.079159973      108065.589040730        7428.563007530            
        4841.531765407      121502.280435763        7511.034965143            
        4847.992982100      121434.898171946        7507.099564510            
        4854.462821543      118801.737792299        7485.599471269            
        4860.941295244      130824.270715494        7548.066180572            
        4867.428414726      134162.082853304        7558.466606191            
        4873.924191527      119156.872655746        7453.963789063            
        4880.428637200      122993.719150386        7468.991387061            
        4886.941763315      123924.344442637        7463.491783974            
        4893.463581455      122157.795151648        7444.403285841            
        4899.994103222      123268.000677994        7451.369868169            
        4906.533340229      119555.646034334        7427.930933187            
        4913.081304108      131358.636625450        7500.728091200            
        4919.638006506      132842.339451338        7520.372648449            
        4926.203459083      120304.698052095        7455.232360038            
        4932.777673518      130494.925040123        7527.615171627            
        4939.360661504      123636.483676564        7504.507791813            
        4945.952434749      130059.224901949        7554.149903762            
        4952.553004978      128309.498946726        7562.437407016            
        4959.162383930      128767.697553558        7573.524359515            
        4965.780583361      147066.740995457        7691.699123036            
        4972.407615042      118730.961376778        7536.996114664            
        4979.043490761      128900.414567319        7605.702005613            
        4985.688222320      143816.517844713        7693.111999882            
        4992.341821538      145658.736851982        7710.558611105            
        4999.004300248      144296.801435349        7713.790638080            
        5005.675670301      140614.172111571        7697.284264825            
        5012.355943562      140587.384164274        7708.339610447            
        5019.045131914      147186.580396982        7758.120045520            
        5025.743247254      142333.395970146        7745.209660256            
        5032.450301496      142681.519479113        7759.733278882            
        5039.166306567      143348.635558473        7778.842143291            
        5045.891274415      144482.663833687        7802.396037242            
        5052.625217000      146039.663608926        7832.254157010            
        5059.368146299      145552.534876488        7856.009230389            
        5066.120074305      136522.328356004        7836.923038181            
        5072.881013028      142631.743220634        7897.425055280            
        5079.650974492      142981.053370538        7928.790137539            
        5086.429970739      135182.329251972        7903.349879561            
        5093.218013827      139108.536462324        7940.863874420            
        5100.015115827      134407.584081961        7915.234822414            
        5106.821288831      130286.511371522        7907.154070721            
        5113.636544943      137728.834584538        7963.658790158            
        5120.460896286      126472.808214113        7924.679977872            
        5127.294354997      121272.863839062        7927.882526586            
        5134.136933230      138108.161412925        8052.082855381            
        5140.988643156      136973.130836059        8063.246502155            
        5147.849496961      126979.122463187        8027.569496295            
        5154.719506849      130096.359028911        8046.923736984            
        5161.598685038      139695.977107121        8116.671382518            
        5168.487043764      136005.666960327        8109.326006148            
        5175.384595279      142321.083873153        8150.615181318            
        5182.291351850      125244.683616557        8047.239112368            
        5189.207325763      115048.259381501        7988.322967175            
        5196.132529318      132312.829773687        8105.405811182            
        5203.066974833      126744.955293253        8083.824117396            
        5210.010674641      134644.174809391        8157.064963575            
        5216.963641092      130526.512530243        8145.499550148            
        5223.925886554      123943.088257692        8133.574153358            
        5230.897423409      127508.070574288        8169.292044740            
        5237.878264058      127505.966569597        8185.435462120            
        5244.868420916      124314.663008039        8198.996130905            
        5251.867906416      123616.556315648        8231.417854038            
        5258.876733008      146046.798029226        8400.570188731            
        5265.894913158      142851.717201562        8406.851195996            
        5272.922459348      136790.533892188        8398.421533749            
        5279.959384078      143338.298591630        8458.591508028            
        5287.005699865      141211.225493549        8455.306766107            
        5294.061419239      142936.071631427        8480.932197011            
        5301.126554752      139357.983515611        8471.895725220            
        5308.201118970      144407.916754632        8509.555546730            
        5315.285124474      150884.064223993        8543.094824105            
        5322.378583866      139986.682448137        8480.963632264            
        5329.481509761      140792.334376994        8476.255524243            
        5336.593914794      137934.445595437        8447.261509628            
        5343.715811614      125462.257856792        8364.769615951            
        5350.847212888      127942.917023044        8379.756678473            
        5357.988131301      127664.654882987        8373.820739800            
        5365.138579553      132675.570337870        8402.131303607            
        5372.298570364      150051.693510989        8508.595275247            
        5379.468116466      130126.311010284        8380.872649151            
        5386.647230613      130567.358811171        8384.333075268            
        5393.835925574      135278.197573322        8402.544038917            
        5401.034214134      137061.686750933        8424.969494496            
        5408.242109096      132331.677772385        8401.565050844            
        5415.459623280      139636.586548934        8440.811778701            
        5422.686769525      135982.979217482        8417.092511809            
        5429.923560683      127234.801661625        8367.368623704            
        5437.170009627      124830.240657258        8354.986073763            
        5444.426129246      139173.972826798        8462.373463153            
        5451.691932444      140060.201706297        8489.395020634            
        5458.967432146      133862.201658432        8475.479592850            
        5466.252641292      131106.561446226        8476.720229729            
        5473.547572839      132027.151249674        8505.409044894            
        5480.852239762      133051.566361757        8525.992901361            
        5488.166655054      134447.149651948        8556.935016837            
        5495.490831723      136935.966162316        8594.047834291            
        5502.824782798      139223.457483010        8629.679317513            
        5510.168521323      140149.274454365        8656.600229160            
        5517.522060358      138584.199277677        8668.396645771            
        5524.885412984      136979.385158649        8686.722547807            
        5532.258592296      135442.072569814        8713.741797143            
        5539.641611410      144448.263690128        8813.205530068            
        5547.034483456      156908.974758127        8926.534284308            
        5554.437221585      152100.752935157        8934.706797246            
        5561.849838961      136200.420204488        8868.643193045            
        5569.272348770      146457.516417606        8957.154670765            
        5576.704764214      154395.232646517        9031.907082405            
        5584.147098512      143939.386208240        9014.325759410            
        5591.599364901      144395.600359742        9065.131840656            
        5599.061576635      134825.039470293        9051.781642144            
        5606.533746988      138961.484274494        9116.230560307            
        5614.015889250      133088.821372800        9147.566765081            
        5621.508016728      132432.897927210        9202.296085184            
        5629.010142748      148595.370101672        9341.783572868            
        5636.522280654      153253.601579662        9417.902825902            
        5644.044443806      136989.026213002        9359.484001909            
        5651.576645585      125502.603876033        9313.821783169            
        5659.118899386      133470.339866950        9372.351794365            
        5666.671218625      152825.930330054        9517.134704223            
        5674.233616734      140864.357572469        9455.450427882            
        5681.806107164      137900.286473033        9454.397304026            
        5689.388703384      142751.389611092        9486.406494716            
        5696.981418880      154635.745051966        9578.657201318            
        5704.584267157      137391.053823702        9484.297244834            
        5712.197261737      141309.563452374        9510.053862897            
        5719.820416162      139509.412779117        9487.391584462            
        5727.453743989      146473.681131145        9511.427484614            
        5735.097258795      145966.664685485        9490.211337623            
        5742.750974177      148532.909201893        9487.462061173            
        5750.414903745      154403.827342501        9511.072626866            
        5758.089061133      153642.583355529        9491.079133565            
        5765.773459989      150509.921145213        9465.122275633            
        5773.468113980      154145.910756597        9479.334849651            
        5781.173036794      150964.515729231        9440.679590692            
        5788.888242133      150596.979959170        9406.163046500            
        5796.613743721      132373.046008323        9252.294946913            
        5804.349555298      125412.892965137        9170.990397721            
        5812.095690623      138292.466719510        9203.945162032            
        5819.852163474      134892.241002561        9145.633421797            
        5827.618987646      133104.385880314        9103.315183983            
        5835.396176954      140885.238852215        9123.171432531            
        5843.183745230      155653.418898078        9174.553526226            
        5850.981706326      159136.130954053        9162.892792265            
        5858.790074112      147049.916278066        9055.673607178            
        5866.608862474      146786.010789596        9004.417827674            
        5874.438085321      156589.171717739        9023.228328473            
        5882.277756577      158259.080792734        8994.274724610            
        5890.127890186      148291.728618547        8880.388389287            
        5897.988500110      150358.706020015        8835.252915279            
        5905.859600331      147824.995823276        8769.734552883            
        5913.741204848      146431.809250964        8724.361735681            
        5921.633327680      149971.923125003        8696.535341221            
        5929.535982864      156702.288799264        8696.556591902            
        5937.449184456      157674.873803991        8666.072715620            
        5945.372946529      144622.786595607        8551.672938827            
        5953.307283178      162871.311224907        8616.740187595            
        5961.252208516      157900.713078221        8551.324915482            
        5969.207736672      159435.461134474        8513.067259636            
        5977.173881796      161881.443717029        8470.111814390            
        5985.150658058      146902.666860315        8327.518608756            
        5993.138079646      157336.195689816        8330.256824245            
        6001.136160765      157808.281259197        8278.742065779            
        6009.144915641      152377.507367373        8212.612271916            
        6017.164358519      155961.412868264        8188.083590359            
        6025.194503663      164455.938017114        8191.960066927            
        6033.235365355      154677.831683141        8083.364755961            
        6041.286957897      143365.930513189        7973.773790948            
        6049.349295609      148766.341090216        7943.066578447            
        6057.422392831      147160.934744606        7883.396012893            
        6065.506263923      151883.455508757        7864.295812144            
        6073.600923262      151301.557153151        7812.225475466            
        6081.706385246      161129.446826313        7809.180531325            
        6089.822664291      147044.970160889        7676.460657688            
        6097.949774834      152568.754682692        7659.691694869            
        6106.087731328      146358.926508879        7576.265679845            
        6114.236548250      154282.804171398        7578.078467556            
        6122.396240091      162619.284478755        7590.898560587            
        6130.566821366      144314.994509448        7455.500063570            
        6138.748306607      158248.997765302        7500.374912697            
        6146.940710365      151128.434901674        7429.244738346            
        6155.144047212      149031.171024664        7393.767757069            
        6163.358331737      159007.154865655        7423.290944130            
        6171.583578553      162399.135127153        7430.968681117            
        6179.819802287      165238.648880777        7428.812048023            
        6188.067017589      166203.369269881        7408.130755673            
        6196.325239129      160604.748301349        7363.075003556            
        6204.594481593      157140.829878405        7317.199002782            
        6212.874759690      157460.161429790        7300.141763528            
        6221.166088148      154329.528284197        7260.660374853            
        6229.468481713      170519.656734077        7325.922831583            
        6237.781955153      165068.680960237        7275.585992506            
        6246.106523254      160946.013602375        7231.004787256            
        6254.442200821      163404.902190233        7213.810743989            
        6262.789002682      168510.593165655        7211.048456120            
        6271.146943683      160413.465891637        7148.952617208            
        6279.516038687      158165.892240197        7111.310353923            
        6287.896302582      165793.163632744        7135.920575320            
        6296.287750273      166067.115311363        7116.763388099            
        6304.690396684      168709.501414549        7113.710881986            
        6313.104256761      158202.611905879        7037.604915643            
        6321.529345468      166174.992850245        7049.225455672            
        6329.965677792      165401.991363318        7015.626115535            
        6338.413268737      164103.409079172        6985.173592103            
        6346.872133327      156394.749516000        6924.787405454            
        6355.342286609      156306.863818226        6902.020987024            
        6363.823743648      167742.380557031        6949.677678905            
        6372.316519528      160482.634005166        6910.189832721            
        6380.820629355      168596.221687455        6954.291459988            
        6389.336088256      164683.128913867        6935.939973526            
        6397.862911374      173800.877600859        6985.750353578            
        6406.401113877      168389.341584474        6955.481033372            
        6414.950710952      170401.331419671        6963.507023247            
        6423.511717803      174712.625518578        6979.302341464            
        6432.084149658      183130.734931397        7019.495735229            
        6440.668021765      191171.776786678        7065.645363630            
        6449.263349391      200670.577314837        7122.178900373            
        6457.870147823      211727.171043440        7189.575351485            
        6466.488432369      213445.098511313        7212.876950574            
        6475.118218360      222317.435046218        7275.219824731            
        6483.759521143      225591.651508179        7310.026872529            
        6492.412356088      230044.396253803        7345.711088372            
        6501.076738585      243929.906618750        7421.024912273            
        6509.752684046      233633.035878205        7380.670416850            
        6518.440207901      230792.574113765        7374.896996510            
        6527.139325602      229352.778687249        7372.677024912            
        6535.850052621      220479.016112056        7338.186316472            
        6544.572404452      205544.555513144        7279.558321170            
        6553.306396609      201515.271067848        7277.512751058            
        6562.052044625      189268.374867481        7239.021843684            
        6570.809364057      184772.506650896        7225.158623348            
        6579.578370479      186952.977503620        7254.752988188            
        6588.359079490      174634.591998896        7209.892657050            
        6597.151506705      172273.032851214        7210.655201269            
        6605.955667765      182256.928514240        7275.124833833            
        6614.771578328      191369.994166578        7344.739219207            
        6623.599254074      182173.049124471        7322.822724284            
        6632.438710704      184645.784823784        7353.731290282            
        6641.289963941      175059.548532417        7328.570095759            
        6650.153029527      175188.225402253        7345.377495875            
        6659.027923226      176068.254086019        7366.130698400            
        6667.914660825      179817.388584247        7396.223304009            
        6676.813258128      182204.571038416        7418.867193356            
        6685.723730963      167415.859926020        7359.160020316            
        6694.646095178      168749.762547963        7384.975535615            
        6703.580366644      174701.993832224        7441.707641291            
        6712.526561250      176062.372021037        7468.996119311            
        6721.484694908      177192.373087474        7493.229816595            
        6730.454783552      168486.238997623        7457.710810842            
        6739.436843136      166007.143208219        7462.125167160            
        6748.430889636      168289.254475220        7491.503068978            
        6757.436939049      178019.895145259        7565.587855952            
        6766.455007392      170074.722416459        7553.806410481            
        6775.485110707      164759.728230738        7547.759937839            
        6784.527265054      184158.778678845        7684.580362611            
        6793.581486515      179399.630166038        7685.622859841            
        6802.647791195      185689.495746488        7748.240384372            
        6811.726195219      177093.077268811        7728.061633506            
        6820.816714734      181318.451329511        7775.686182400            
        6829.919365909      180495.351733148        7788.581851414            
        6839.034164934      181265.858401947        7817.277349336            
        6848.161128021      176282.956859708        7806.747957268            
        6857.300271403      176510.829676936        7812.430507957            
        6866.451611335      178229.002834691        7827.365219642            
        6875.615164095      168945.994575337        7774.643245044            
        6884.790945980      181209.741985454        7839.202453659            
        6893.978973311      166512.705209970        7759.227433872            
        6903.179262430      169832.553379133        7790.148729573            
        6912.391829700      185328.017973042        7884.133086173            
        6921.616691508      187081.821509230        7921.515583803            
        6930.853864261      169772.054459784        7844.115894129            
        6940.103364388      183286.280792162        7937.392040066            
        6949.365208342      179998.636786787        7928.696967839            
        6958.639412594      176414.247067854        7926.526295064            
        6967.925993640      172838.637517580        7908.326502221            
        6977.224967999      181162.458352227        7961.822732347            
        6986.536352208      182207.476869386        7973.985233735            
        6995.860162830      181095.620665595        7987.651990799            
        7005.196416448      164150.444474051        7917.454275629            
        7014.545129668      183885.867701041        8060.874628383            
        7023.906319118      194242.001562757        8167.551846315            
        7033.280001447      173008.372423056        8084.059706529            
        7042.666193328      185323.650998917        8195.642918076            
        7052.064911455      186723.366164856        8242.146945818            
        7061.476172546      180973.871885724        8255.766023779            
        7070.899993339      191653.675240716        8359.045511977            
        7080.336390595      191606.434062456        8397.486171081            
        7089.785381099      184632.064620266        8401.101702374            
        7099.246981656      177350.180947942        8392.661766598            
        7108.721209096      182788.741928548        8466.650782380            
        7118.208080269      177717.433507247        8476.762067827            
        7127.707612048      178424.253366087        8516.703467831            
        7137.219821331      168143.855107377        8502.818457739            
        7146.744725036      166693.003117451        8535.646422264            
        7156.282340103      186163.783165772        8684.686157941            
        7165.832683497      187516.646597412        8720.430307963            
        7175.395772204      182294.456118661        8735.009625984            
        7184.971623233      175918.349943673        8731.925135087            
        7194.560253616      188682.640099255        8841.715323043            
        7204.161680408      184889.615784420        8864.525979276            
        7213.775920685      178762.167897450        8865.285273576            
        7223.402991549      184226.108862084        8937.829463237            
        7233.042910122      184736.844630788        8984.195596437            
        7242.695693549      187583.136941165        9049.583982774            
        7252.361359000      193357.550130790        9134.717981211            
        7262.039923665      195868.691480240        9195.710672110            
        7271.731404760      191793.720060066        9213.657785931            
        7281.435819523      178854.239038036        9157.910395506            
        7291.153185212      183826.919852185        9244.250905074            
        7300.883519113      180395.708118538        9260.886046095            
        7310.626838531      186134.666247876        9346.386828669            
        7320.383160796      178626.165602968        9356.808948812            
        7330.152503262      171800.771544686        9352.971957844            
        7339.934883303      187523.104482275        9477.553958731            
        7349.730318320      188971.703515377        9514.518244513            
        7359.538825734      168375.209372908        9429.239891911            
        7369.360422992      176761.302326266        9513.083353983            
        7379.195127562      193527.404137962        9671.906041733            
        7389.042956936      189019.533690118        9702.603297467            
        7398.903928630      186530.560957101        9749.030556443            
        7408.778060183      181850.022982713        9755.164411452            
        7418.665369157      191586.941921387        9862.266078477            
        7428.565873138      165150.033729814        9725.562490399            
        7438.479589736      176930.993247074        9825.684029083            
        7448.406536582      177304.233262018        9858.981516895            
        7458.346731334      179159.229835114        9891.877797074            
        7468.300191672      192001.489064960        9984.546511498            
        7478.266935298      193403.280316314       10014.788472886            
        7488.246979939      189497.505174830       10014.380662313            
        7498.240343348      181594.834925271        9978.371632949            
        7508.247043297      190275.097647745       10062.968710082            
        7518.267097585      196478.584969231       10114.035354785            
        7528.300524034      187250.925279760       10080.337121089            
        7538.347340490      173447.898975728       10026.807145267            
        7548.407564821      186659.543593909       10145.245410500            
        7558.481214923      192575.369978163       10221.260914964            
        7568.568308711      189693.905856315       10276.042744252            
        7578.668864127      194206.408901659       10362.774981348            
        7588.782899135      203714.209980056       10458.046150961            
        7598.910431726      199481.766014505       10467.134088101            
        7609.051479912      186448.328642030       10409.090608407            
        7619.206061730      179861.846641847       10388.947474339            
        7629.374195241      187459.007192156       10463.537872363            
        7639.555898531      188587.652224450       10506.368908331            
        7649.751189708      191185.686941857       10574.159010232            
        7659.960086908      191932.948503699       10608.722978052            
        7670.182608286      204046.623244606       10721.503578156            
        7680.418772026      176462.694932444       10584.475239615            
        7690.668596334      191873.296370707       10688.846012186            
        7700.932099440      201067.383005514       10744.811702912            
        7711.209299598      182826.582270713       10652.902618449            
        7721.500215090      195135.555776124       10718.693083934            
        7731.804864217      190532.017863347       10675.457822797            
        7742.123265308      207731.429170969       10771.540599526            
        7752.455436716      203694.395230014       10740.175035860            
        7762.801396817      199715.027341828       10703.236971096            
        7773.161164014      197301.262807129       10686.125917264            
        7783.534756732      205885.873547884       10731.678122392            
        7793.922193422      206533.167740732       10721.098679946            
        7804.323492560      190104.493578928       10614.436035116            
        7814.738672645      196269.235214616       10598.525996899            
        7825.167752202      224274.235086545       10709.397553261            
        7835.610749780      190938.960583624       10453.995191904            
        7846.067683954      197391.873424546       10440.784323882            
        7856.538573322      219812.909782906       10473.251153021            
        7867.023436509      220306.862888845       10402.748700470            
        7877.522292163      217649.803294743       10303.928440083            
        7888.035158957      233572.422948760       10309.943141401            
        7898.562055590      234809.014170212       10233.332685859            
        7909.103000785      252111.419231099       10241.474875402            
        7919.658013291      261262.243871742       10225.917764024            
        7930.227111881      258473.673353493       10129.776032556            
        7940.810315353      270298.964749790       10104.189010856            
        7951.407642531      258793.798119340        9964.554596588            
        7962.019112264      253454.358623890        9861.202819426            
        7972.644743425      255260.644368868        9799.730257127            
        7983.284554913      266234.795409890        9771.834864035            
        7993.938565653      266504.273177750        9695.630713020            
        8004.606794594      250084.141325505        9530.269255982            
        8015.289260711      256511.464693425        9476.459360310            
        8025.985983004      251959.614635955        9366.403383815            
        8036.696980498      248409.488146853        9263.311928168            
        8047.422272244      243357.360629065        9170.509714152            
        8058.161877319      231693.967554781        9035.643110571            
        8068.915814823      242997.777590417        9020.297174209            
        8079.684103885      223541.232377823        8857.648762184            
        8090.466763657      218731.266962586        8776.185136782            
        8101.263813318      225628.661721239        8756.932759855            
        8112.075272070      221676.854298728        8681.516063817            
        8122.901159144      212079.794416219        8594.124041623            
        8133.741493795      217312.374451930        8568.039373954            
        8144.596295304      220144.220134347        8546.478116001            
        8155.465582977      217673.330738902        8494.546789944            
        8166.349376147      218525.474378839        8461.036081132            
        8177.247694172      226703.872623101        8473.490872021            
        8188.160556435      213247.097598205        8384.035047791            
        8199.087982347      217398.374138549        8380.128392095            
        8210.029991344      216885.978177347        8351.382713731            
        8220.986602886      209775.862725374        8296.325275009            
        8231.957836463      204550.884414682        8251.074450343            
        8242.943711587      202402.804100079        8222.462092858            
        8253.944247799      206799.860178121        8218.096584251            
        8264.959464663      220740.882672043        8270.714210016            
        8275.989381773      206300.689267324        8198.631116915            
        8287.034018745      217305.767184085        8241.342175096            
        8298.093395225      224033.720194380        8276.630532057            
        8309.167530883      210313.664947434        8211.736113972            
        8320.256445415      229376.147992724        8315.177203015            
        8331.360158544      210201.978437253        8239.263411997            
        8342.478690021      230851.722350033        8359.458791602            
        8353.612059619      231981.515140200        8373.903154485            
        8364.760287143      220889.654192853        8348.432827718            
        8375.923392419      214754.824839149        8325.670258154            
        8387.101395303      218012.447145360        8347.948995142            
        8398.294315677      216759.591273041        8351.476354179            
        8409.502173448      219330.387272348        8370.946718158            
        8420.724988551      227829.860227865        8409.780248224            
        8431.962780947      227532.922819474        8413.728576890            
        8443.215570624      216702.814245613        8357.513872380            
        8454.483377596      222954.983112737        8383.390385443            
        8465.766221905      215280.315864437        8352.470877844            
        8477.064123618      216580.763413618        8375.210765250            
        8488.377102831      227875.246019500        8441.339834173            
        8499.705179664      233694.276299115        8482.868280378            
        8511.048374266      227746.890935377        8466.927158702            
        8522.406706812      217243.571556380        8422.428298625            
        8533.780197505      225400.755008190        8462.871344367            
        8545.168866574      218403.831914209        8430.587010992            
        8556.572734275      220697.270802421        8442.613739896            
        8567.991820890      226918.358318809        8477.546890706            
        8579.426146731      219408.484275656        8446.896680258            
        8590.875732134      222694.073210949        8469.984609128            
        8602.340597465      225592.521285698        8480.610776960            
        8613.820763114      233046.187060951        8516.588091633            
        8625.316249501      218989.513906310        8454.497228940            
        8636.827077071      215185.170487167        8443.436266034            
        8648.353266299      231452.794870520        8522.305476433            
        8659.894837684      234268.101612123        8540.958262343            
        8671.451811756      238409.017610406        8574.830778483            
        8683.024209069      224917.385939744        8511.117698542            
        8694.612050207      238938.616482529        8574.806538196            
        8706.215355780      223821.829181730        8502.845819510            
        8717.834146425      221301.669082351        8484.153466304            
        8729.468442808      234002.075852415        8531.465202772            
        8741.118265623      224380.428698312        8480.662064749            
        8752.783635590      227613.414024263        8487.347667726            
        8764.464573457      221491.543158517        8451.709006500            
        8776.161099999      219321.672406476        8442.876084753            
        8787.873236022      223677.278257018        8465.409620034            
        8799.601002356      220736.249261062        8443.211404452            
        8811.344419861      234676.424673749        8516.377783455            
        8823.103509423      228491.511758819        8483.624590159            
        8834.878291958      238743.960938720        8525.542534400            
        8846.668788409      232739.271789456        8494.089977660            
        8858.475019746      222620.373140262        8451.966686923            
        8870.297006968      226338.164080659        8460.255176048            
        8882.134771103      224682.051883530        8450.951234597            
        8893.988333204      237033.551746912        8509.580788404            
        8905.857714356      235811.424151509        8498.877186650            
        8917.742935669      239763.715529264        8508.525292626            
        8929.644018282      234233.159710348        8477.529155897            
        8941.560983363      228225.715842035        8442.319474730            
        8953.493852109      234074.162101430        8468.455710688            
        8965.442645742      231771.542916317        8456.698344229            
        8977.407385515      231829.978706282        8463.351306932            
        8989.388092710      233130.506785327        8468.044345753            
        9001.384788634      237850.622166607        8489.540793243            
        9013.397494627      239026.371670132        8488.865064962            
        9025.426232053      241073.556020599        8495.185420704            
        9037.471022308      233205.631758116        8451.793704916            
        9049.531886815      235030.860853371        8456.133778325            
        9061.608847025      226560.975970931        8413.781868333            
        9073.701924418      242476.265105369        8482.180025960            
        9085.811140505      238282.050292228        8458.997389647            
        9097.936516822      242474.994135777        8466.108144375            
        9110.078074935      254975.982970670        8517.900087752            
        9122.235836441      260179.444380469        8544.805089596            
        9134.409822963      276464.851594888        8615.164704152            
        9146.600056155      301323.164663056        8725.534786475            
        9158.806557697      308529.597208602        8759.422772146            
        9171.029349301      313798.195022519        8782.745013228            
        9183.268452707      318246.361082277        8796.618908686            
        9195.523889683      326430.847980144        8834.039826401            
        9207.795682027      329165.402053521        8841.161902820            
        9220.083851566      319874.656216793        8793.217844560            
        9232.388420156      328446.304291428        8821.649923862            
        9244.709409682      303295.808790318        8699.996935091            
        9257.046842058      298250.904236645        8656.222091340            
        9269.400739229      276914.612158303        8550.444534185            
        9281.771123167      263892.376230968        8483.200259740            
        9294.158015874      264092.327404352        8470.122664101            
        9306.561439382      261911.300824591        8446.126860947            
        9318.981415752      251916.375300603        8399.272743858            
        9331.417967075      249236.042830122        8382.266722308            
        9343.871115470      246002.020998119        8369.275748073            
        9356.340883086      245440.312879390        8367.899484298            
        9368.827292104      250708.185356777        8391.129424194            
        9381.330364731      249265.345720598        8381.891355595            
        9393.850123205      240978.326895769        8339.444008918            
        9406.386589796      252601.255975082        8388.932894117            
        9418.939786799      249376.042156367        8378.179999565            
        9431.509736543      249995.768553621        8390.468560484            
        9444.096461385      251442.002460691        8405.280436827            
        9456.699983712      254797.673338834        8427.646073409            
        9469.320325941      248524.670339954        8408.485562219            
        9481.957510518      250891.197531334        8418.018872556            
        9494.611559921      261353.268327884        8458.779637266            
        9507.282496655      255164.388965683        8421.534865840            
        9519.970343259      252422.270130925        8400.319543585            
        9532.675122299      245697.522212090        8357.773799152            
        9545.396856372      247765.953862976        8355.190627745            
        9558.135568104      252053.628845809        8359.926206733            
        9570.891280155      248615.978389890        8337.067222667            
        9583.664015210      247953.472717663        8326.626227431            
        9596.453795988      254139.782089762        8334.801873518            
        9609.260645237      258650.344409356        8344.767916607            
        9622.084585736      241629.860174703        8255.028289388            
        9634.925640294      262600.018909645        8338.812481154            
        9647.783831749      247547.573930741        8265.694268184            
        9660.659182972      254610.720932323        8293.849850477            
        9673.551716864      244165.332924156        8246.954296917            
        9686.461456355      248289.940757621        8265.266782435            
        9699.388424407      264159.413416259        8325.546321512            
        9712.332644011      252244.560415485        8266.036864565            
        9725.294138192      254487.490327411        8274.454017957            
        9738.272930002      239490.683909971        8207.003203010            
        9751.269042526      253605.146501838        8269.251819575            
        9764.282498879      251131.944797844        8264.456582361            
        9777.313322206      251929.728307966        8280.420553502            
        9790.361535686      249417.072021426        8278.637795760            
        9803.427162526      254593.016161873        8314.121883877            
        9816.510225964      260727.616477777        8351.722056925            
        9829.610749271      266862.664570221        8388.422031742            
        9842.728755748      256205.768257033        8352.334674682            
        9855.864268725      260865.376824148        8380.337092819            
        9869.017311567      256144.832154618        8356.491028604            
        9882.187907668      251862.546674412        8331.063053909            
        9895.376080453      256639.993157970        8353.889898080            
        9908.581853379      245562.325975253        8308.609002935            
        9921.805249935      266863.386204972        8395.320693400            
        9935.046293639      261761.898780459        8382.384964499            
        9948.305008042      252377.206483266        8351.858759314            
        9961.581416727      270613.826307028        8419.726664250            
        9974.875543308      268770.609823821        8403.171551803            
        9988.187411429      258580.411436218        8342.498000195            
       10001.517044768      264215.881855665        8352.117476243            
       10014.864467032      249118.783099012        8275.158182424            
       10028.229701962      258115.512774748        8303.326914692            
       10041.612773330      267859.053037005        8332.522297978            
       10055.013704939      270736.434744702        8346.956848930            
       10068.432520624      262504.497593406        8301.726360625            
       10081.869244252      272122.407157704        8326.906939240            
       10095.323899722      253439.611345439        8235.269884814            
       10108.796510966      258771.088291646        8240.723084775            
       10122.287101944      266389.612793510        8237.426224121            
       10135.795696653      265595.503788016        8221.586013897            
       10149.322319119      254441.385724041        8161.338544569            
       10162.866993400      280639.099228048        8256.483143708            
       10176.429743588      272190.854011087        8203.410964730            
       10190.010593805      272682.741206293        8199.071057942            
       10203.609568208      270371.929061843        8160.539837810            
       10217.226690982      272554.871190140        8146.653270353            
       10230.861986348      263652.263564753        8085.111406946            
       10244.515478558      277988.014958906        8125.497739891            
       10258.187191897      277338.929676677        8099.200642024            
       10271.877150681      271634.183955421        8063.675839559            
       10285.585379259      261910.193062645        8012.068880424            
       10299.311902013      266569.909501110        8022.715359688            
       10313.056743358      269322.511694979        8022.684949484            
       10326.819927741      268871.459588560        8016.479871083            
       10340.601479640      268956.554564057        8013.753880050            
       10354.401423568      273991.056341326        8023.327575961            
       10368.219784071      289815.446025007        8072.475221468            
       10382.056585725      276361.247906248        8016.846387199            
       10395.911853141      273454.807815481        8001.581109383            
       10409.785610962      271327.263243698        7985.095862515            
       10423.677883866      256083.637348689        7915.932266778            
       10437.588696559      273207.485957323        7979.201474737            
       10451.518073786      276728.835358083        7977.981611076            
       10465.466040321      273247.357438794        7953.828473665            
       10479.432620971      271936.253348681        7927.099010838            
       10493.417840579      267541.219117533        7894.437671097            
       10507.421724019      269197.942165894        7890.999131513            
       10521.444296198      266066.213993109        7859.700220022            
       10535.485582057      273355.797882702        7865.456065696            
       10549.545606571      265161.019037347        7824.556050244            
       10563.624394747      269073.478329249        7825.087931123            
       10577.721971625      284734.358444594        7867.810597487            
       10591.838362281      284016.956055691        7856.530492475            
       10605.973591821      269987.615718316        7797.953834968            
       10620.127685387      271826.386515315        7786.753749042            
       10634.300668154      288421.267966983        7847.144268686            
       10648.492565330      265304.860639785        7760.392008474            
       10662.703402157      270934.709476389        7789.226783998            
       10676.933203912      284568.310241337        7848.749795154            
       10691.181995902      276571.476654133        7836.265898590            
       10705.449803472      274979.017308506        7847.965059961            
       10719.736651999      277980.874518980        7876.209590843            
       10734.042566894      281879.848722432        7915.219300980            
       10748.367573601      278628.033293310        7926.295921347            
       10762.711697599      280202.303871914        7959.174673512            
       10777.074964400      276110.949778362        7964.507040980            
       10791.457399553      277429.336622180        8000.603734650            
       10805.859028638      269511.589795321        7996.497206128            
       10820.279877269      276186.011374380        8050.761162698            
       10834.719971096      277039.823947341        8083.486930502            
       10849.179335803      275148.487950060        8102.763722400            
       10863.657997107      276863.322736990        8136.910771656            
       10878.155980760      269952.835954020        8138.879346699            
       10892.673312549      280328.730739969        8216.633140123            
       10907.210018295      289288.756554055        8284.811916708            
       10921.766123853      292670.962604509        8332.962111442            
       10936.341655112      283224.838384396        8326.028913042            
       10950.936637998      277202.814278682        8327.078377922            
       10965.551098468      272775.242685650        8342.742589542            
       10980.185062518      280060.443831057        8407.855076646            
       10994.838556174      285640.493332063        8455.245095648            
       11009.511605501      281784.037977267        8475.581460634            
       11024.204236595      272437.320062414        8465.675608285            
       11038.916475590      281458.149120889        8534.303554445            
       11053.648348653      284191.451944019        8574.069763260            
       11068.399881987      281779.227198706        8609.659704772            
       11083.171101828      290261.683924017        8679.679513728            
       11097.962034450      288513.772256278        8713.738159909            
       11112.772706160      305176.873610929        8815.667267425            
       11127.603143300      319783.365064904        8918.568179540            
       11142.453372248      332120.871819759        9015.815945876            
       11157.323419418      352882.622286303        9142.302657071            
       11172.213311256      363696.641564701        9243.649638316            
       11187.123074248      378591.889427170        9373.403999335            
       11202.052734911      390512.218589320        9487.582014538            
       11217.002319800      420326.444285385        9676.538943712            
       11231.971855505      424228.253197138        9755.506163553            
       11246.961368650      435681.366782359        9870.186550042            
       11261.970885897      435535.797018841        9915.958575852            
       11277.000433942      441488.608408789        9977.548131960            
       11292.050039516      432819.532526747        9973.528379441            
       11307.119729388      422084.731963906        9961.166420547            
       11322.209530360      413056.569194960        9936.214046281            
       11337.319469271      404390.943313383        9923.321643841            
       11352.449572997      371267.169777736        9818.760389376            
       11367.599868448      358395.468228410        9781.486427976            
       11382.770382571      354267.325005875        9786.430622973            
       11397.961142348      339480.497988111        9748.325733722            
       11413.172174798      343878.227902637        9781.799665524            
       11428.403506976      334619.959386034        9770.073143067            
       11443.655165973      343514.080083401        9843.478041537            
       11458.927178915      377123.269868682       10023.832348582            
       11474.219572966      389693.625050475       10112.800010633            
       11489.532375325      393460.328258869       10180.939701575            
       11504.865613227      404959.995349126       10259.692713885            
       11520.219313945      409540.944798790       10315.007011418            
       11535.593504788      394144.125519408       10284.542786563            
       11550.988213100      388466.303143480       10292.092490113            
       11566.403466262      358970.792918314       10196.193510429            
       11581.839291693      345222.773814191       10164.632189945            
       11597.295716846      345518.736823725       10195.411431340            
       11612.772769214      330895.874434414       10156.370187555            
       11628.270476324      317509.024706141       10121.784040187            
       11643.788865740      291436.105956842       10038.945890550            
       11659.327965064      298343.864028013       10105.586165911            
       11674.887801934      310635.548288573       10206.611415567            
       11690.468404025      305635.739187864       10226.388390430            
       11706.069799049      307932.689435414       10278.009685642            
       11721.692014755      305515.113050262       10308.048722547            
       11737.335078930      290537.951819034       10288.700124291            
       11752.999019396      303610.595891777       10390.517516921            
       11768.683864013      307842.502735912       10448.696802312            
       11784.389640679      295951.760482263       10440.789347468            
       11800.116377329      298747.908031068       10490.845104978            
       11815.864101935      304465.772007188       10545.501917444            
       11831.632842505      303842.362565986       10575.722260323            
       11847.422627087      306092.464315872       10620.896517362            
       11863.233483764      292025.536402658       10586.823759339            
       11879.065440658      293588.906359189       10624.532053773            
       11894.918525928      301585.918940016       10695.402223679            
       11910.792767771      317573.044412781       10800.969029814            
       11926.688194421      303060.547851636       10773.091839828            
       11942.604834151      311234.278278394       10847.661276462            
       11958.542715269      313984.851175641       10893.678943937            
       11974.501866123      318980.952967834       10957.479292314            
       11990.482315098      310315.247224219       10949.181542306            
       12006.484090619      324328.035021604       11053.984793430            
       12022.507221145      303691.289780624       10989.060237748            
       12038.551735176      310866.089513536       11053.382888705            
       12054.617661249      311392.075384747       11083.344531046            
       12070.705027940      308838.220734039       11097.901838004            
       12086.813863861      312300.761707222       11129.722623934            
       12102.944197664      315091.471023190       11160.031002155            
       12119.096058040      317106.221978338       11199.353854646            
       12135.269473715      314282.962671658       11205.489015817            
       12151.464473457      315335.990348232       11226.460656876            
       12167.681086070      309299.014865568       11221.787374945            
       12183.919340398      315506.201028996       11267.828596649            
       12200.179265322      329793.482614352       11341.781464829            
       12216.460889762      324512.751304598       11330.101699420            
       12232.764242677      308512.121425162       11280.565023994            
       12249.089353066      315382.078300238       11320.995672769            
       12265.436249963      326744.121530048       11391.494239595            
       12281.804962445      301816.042230168       11286.652341470            
       12298.195519624      310431.242420808       11336.698820471            
       12314.607950654      312917.523456065       11366.480894254            
       12331.042284726      314850.833167462       11392.209032272            
       12347.498551070      339230.845398772       11540.568144393            
       12363.976778956      313102.221818339       11432.203518597            
       12380.476997693      330311.878148779       11543.147954310            
       12396.999236628      315944.360674801       11495.524256488            
       12413.543525147      316870.444582559       11520.654546188            
       12430.109892678      330253.079158541       11597.871964276            
       12446.698368685      308227.792276915       11512.712396030            
       12463.308982673      297171.169806581       11489.023938964            
       12479.941764186      320416.464557445       11617.928710541            
       12496.596742807      328192.227246360       11686.790977087            
       12513.273948160      339086.940318230       11776.311134137            
       12529.973409906      323252.379667620       11717.283421136            
       12546.695157749      333563.049417660       11786.762362201            
       12563.439221429      317256.989637449       11729.777860572            
       12580.205630727      329520.936769395       11813.848950675            
       12596.994415466      322518.676169404       11798.161362576            
       12613.805605506      313421.571131672       11784.959255998            
       12630.639230748      336112.766915611       11928.371565445            
       12647.495321131      340404.628668182       11967.908001070            
       12664.373906638      344093.961204927       12008.157541692            
       12681.275017289      330319.623704591       11950.443289223            
       12698.198683144      338736.024285319       12015.648515150            
       12715.144934304      327278.465570051       11973.737635900            
       12732.113800910      342006.457454446       12070.680476506            
       12749.105313143      346421.289572776       12117.435949467            
       12766.119501225      327233.584572892       12045.797164821            
       12783.156395418      330073.002107201       12082.694297658            
       12800.216026024      344015.935070645       12174.141044197            
       12817.298423386      343794.926897339       12200.460481275            
       12834.403617886      332150.100163944       12161.363920925            
       12851.531639948      338386.127431018       12209.281936712            
       12868.682520037      339957.253323661       12211.572677051            
       12885.856288658      329611.388390577       12142.681625751            
       12903.052976355      319421.013769240       12084.904723224            
       12920.272613717      328478.493398979       12114.637005378            
       12937.515231369      358759.870106883       12261.331198935            
       12954.780859981      347145.872384455       12192.416252683            
       12972.069530260      349345.092676630       12203.127240646            
       12989.381272958      339767.245714879       12134.752236322            
       13006.716118864      330528.104903045       12341.685208786            
       13024.074098812      334095.656002812       12759.278992719            
